timestamp_ms,ecg_filtered,ppg_dc_ir,ecg_bpm,spo2_pct,pitch_deg,roll_deg,motion_g
430916,2088,389,65.2,0.0,3.2,-1.6,1.07
430921,1700,389,65.2,0.0,3.2,-1.6,1.07
430924,1644,389,65.2,0.0,3.4,-1.7,1.09
430928,1730,389,65.2,0.0,3.4,-1.7,1.09
430941,2079,388,65.2,0.0,3.4,-1.7,1.09
430942,2112,388,65.2,0.0,3.4,-1.7,1.09
430943,2195,388,65.2,0.0,3.4,-1.7,1.09
430944,2132,388,65.2,0.0,3.4,-1.7,1.09
430958,1955,388,65.2,0.0,3.4,-1.7,1.09
430958,1959,388,65.2,0.0,3.4,-1.7,1.09
430959,2047,388,65.2,0.0,3.4,-1.7,1.09
430960,2089,388,65.2,0.0,3.4,-1.7,1.09
430975,2071,388,65.2,0.0,3.4,-1.7,1.09
430975,1980,388,65.2,0.0,3.4,-1.7,1.09
430976,1984,388,65.2,0.0,3.4,-1.7,1.09
430976,2066,388,65.2,0.0,3.4,-1.7,1.09
430989,2148,388,65.2,0.0,3.2,-1.8,1.07
430990,2105,388,65.2,0.0,3.2,-1.8,1.07
430991,2069,388,65.2,0.0,3.2,-1.8,1.07
430992,2015,388,65.2,0.0,3.2,-1.8,1.07
431008,3863,388,65.2,0.0,3.2,-1.8,1.07
431009,3932,388,65.2,0.0,3.2,-1.8,1.07
431009,3956,388,65.2,0.0,3.2,-1.8,1.07
431009,3926,388,65.2,0.0,3.2,-1.8,1.07
431022,1336,388,65.2,0.0,3.2,-1.8,1.07
431022,1333,388,65.2,0.0,3.2,-1.8,1.07
431022,1272,388,65.2,0.0,3.2,-1.8,1.07
431040,2244,388,65.2,0.0,3.2,-1.8,1.07
431041,2225,388,65.2,0.0,3.2,-1.8,1.07
431041,2325,388,65.2,0.0,3.2,-1.8,1.07
431041,2382,388,65.2,0.0,3.2,-1.8,1.07
431054,1953,388,65.2,0.0,3.1,-1.9,1.08
431054,1863,388,65.2,0.0,3.1,-1.9,1.08
431054,1853,388,65.2,0.0,3.1,-1.9,1.08
431074,2055,388,65.2,0.0,3.1,-1.9,1.08
431074,2118,388,65.2,0.0,3.1,-1.9,1.08
431077,2086,388,65.2,0.0,3.1,-1.9,1.08
431077,1973,388,65.2,0.0,3.1,-1.9,1.08
431090,1953,388,65.2,0.0,3.1,-1.9,1.08
431090,2036,388,65.2,0.0,3.1,-1.9,1.08
431091,2092,388,65.2,0.0,3.1,-1.9,1.08
431091,2053,388,65.2,0.0,3.1,-1.9,1.08
431109,1973,387,65.2,0.0,3.1,-1.8,1.08
431110,1962,387,65.2,0.0,3.1,-1.8,1.08
431110,2036,387,65.2,0.0,3.1,-1.8,1.08
431110,2074,387,65.2,0.0,3.1,-1.8,1.08
431122,2064,387,65.2,0.0,3.1,-1.8,1.08
431123,1992,387,65.2,0.0,3.1,-1.8,1.08
431123,1989,387,65.2,0.0,3.1,-1.8,1.08
431141,2042,387,65.2,0.0,3.1,-1.8,1.08
431142,2089,387,65.2,0.0,3.1,-1.8,1.08
431142,2058,387,65.2,0.0,3.1,-1.8,1.08
431142,1984,387,65.2,0.0,3.1,-1.8,1.08
431155,1993,387,65.2,0.0,3.1,-1.7,1.08
431155,2078,387,65.2,0.0,3.1,-1.7,1.08
431155,2091,387,65.2,0.0,3.1,-1.7,1.08
431175,2058,387,65.2,0.0,3.1,-1.7,1.08
431176,1999,387,65.2,0.0,3.1,-1.7,1.08
431178,1992,387,65.2,0.0,3.1,-1.7,1.08
431178,2045,387,65.2,0.0,3.1,-1.7,1.08
431191,2089,387,65.2,0.0,3.1,-1.7,1.08
431191,2065,387,65.2,0.0,3.1,-1.7,1.08
431192,2001,387,65.2,0.0,3.1,-1.7,1.08
431192,1993,387,65.2,0.0,3.1,-1.7,1.08
431210,2102,387,65.2,0.0,3.2,-1.7,1.07
431210,2128,387,65.2,0.0,3.2,-1.7,1.07
431210,2105,387,65.2,0.0,3.2,-1.7,1.07
431211,2056,387,65.2,0.0,3.2,-1.7,1.07
431223,2032,387,65.2,0.0,3.2,-1.7,1.07
431224,2107,387,65.2,0.0,3.2,-1.7,1.07
431224,2150,387,65.2,0.0,3.2,-1.7,1.07
431242,1983,387,65.2,0.0,3.2,-1.7,1.07
431243,1941,387,65.2,0.0,3.2,-1.7,1.07
431243,1939,387,65.2,0.0,3.2,-1.7,1.07
431243,2024,387,65.2,0.0,3.2,-1.7,1.07
431256,2285,386,65.2,0.0,3.2,-1.7,1.07
431256,2198,386,65.2,0.0,3.2,-1.7,1.07
431256,2161,386,65.2,0.0,3.2,-1.7,1.07
431276,2154,386,65.2,0.0,3.2,-1.7,1.07
431279,2075,386,65.2,0.0,3.2,-1.7,1.07
431279,2081,386,65.2,0.0,3.2,-1.7,1.07
431280,2064,386,65.2,0.0,3.2,-1.7,1.07
431292,2671,386,65.2,0.0,3.2,-1.7,1.07
431293,2622,386,65.2,0.0,3.2,-1.7,1.07
431293,2633,386,65.2,0.0,3.2,-1.7,1.07
431293,2642,386,65.2,0.0,3.2,-1.7,1.07
431311,2259,386,65.2,0.0,3.2,-1.7,1.07
431311,2226,386,65.2,0.0,3.2,-1.7,1.07
431311,2206,386,65.2,0.0,3.2,-1.7,1.07
431312,2239,386,65.2,0.0,3.2,-1.7,1.07
431324,1743,386,65.2,0.0,3.2,-1.7,1.07
431325,1615,386,65.2,0.0,3.2,-1.7,1.07
431325,1501,386,65.2,0.0,3.2,-1.7,1.07
431343,2446,386,65.2,0.0,3.2,-1.7,1.07
431344,2507,386,65.2,0.0,3.2,-1.7,1.07
431344,2606,386,65.2,0.0,3.2,-1.7,1.07
431344,2646,386,65.2,0.0,3.2,-1.7,1.07
431358,1868,386,65.2,0.0,3.1,-1.8,1.07
431358,1772,386,65.2,0.0,3.1,-1.8,1.07
431358,1783,386,65.2,0.0,3.1,-1.8,1.07
431377,2090,386,65.2,0.0,3.1,-1.8,1.07
431378,2123,386,65.2,0.0,3.1,-1.8,1.07
431379,2088,386,65.2,0.0,3.1,-1.8,1.07
431379,2025,386,65.2,0.0,3.1,-1.8,1.07
431392,2300,385,65.2,0.0,3.1,-1.8,1.07
431392,2336,385,65.2,0.0,3.1,-1.8,1.07
431393,2363,385,65.2,0.0,3.1,-1.8,1.07
431393,2332,385,65.2,0.0,3.1,-1.8,1.07
431410,2026,385,65.2,0.0,3.0,-1.7,1.07
431411,2021,385,65.2,0.0,3.0,-1.7,1.07
431411,2048,385,65.2,0.0,3.0,-1.7,1.07
431411,2086,385,65.2,0.0,3.0,-1.7,1.07
431424,2079,385,65.2,0.0,3.0,-1.7,1.07
431424,2043,385,65.2,0.0,3.0,-1.7,1.07
431425,2032,385,65.2,0.0,3.0,-1.7,1.07
431443,2024,385,65.2,0.0,3.0,-1.7,1.07
431444,2047,385,65.2,0.0,3.0,-1.7,1.07
431444,2048,385,65.2,0.0,3.0,-1.7,1.07
431444,2012,385,65.2,0.0,3.0,-1.7,1.07
431458,2022,385,65.2,0.0,2.9,-1.7,1.08
431458,2031,385,65.2,0.0,2.9,-1.7,1.08
431458,2071,385,65.2,0.0,2.9,-1.7,1.08
431476,2052,385,65.2,0.0,2.9,-1.7,1.08
431477,2024,385,65.2,0.0,2.9,-1.7,1.08
431477,2000,385,65.2,0.0,2.9,-1.7,1.08
431477,2034,385,65.2,0.0,2.9,-1.7,1.08
431490,2075,385,65.2,0.0,2.9,-1.7,1.08
431490,2077,385,65.2,0.0,2.9,-1.7,1.08
431491,2049,385,65.2,0.0,2.9,-1.7,1.08
431513,2128,384,65.2,0.0,3.0,-1.7,1.07
431516,2056,384,65.2,0.0,3.0,-1.7,1.07
431516,2065,384,65.2,0.0,3.0,-1.7,1.07
431516,2053,384,65.2,0.0,3.0,-1.7,1.07
431529,2031,384,65.2,0.0,3.0,-1.7,1.07
431530,2011,384,65.2,0.0,3.0,-1.7,1.07
431530,2026,384,65.2,0.0,3.0,-1.7,1.07
431530,2056,384,65.2,0.0,3.0,-1.7,1.07
431547,2548,384,65.2,0.0,3.0,-1.7,1.07
431547,2543,384,65.2,0.0,3.0,-1.7,1.07
431547,2555,384,65.2,0.0,3.0,-1.7,1.07
431547,2591,384,65.2,0.0,3.0,-1.7,1.07
431560,1915,384,65.2,0.0,3.1,-1.6,1.07
431560,1880,384,65.2,0.0,3.1,-1.6,1.07
431560,1827,384,65.2,0.0,3.1,-1.6,1.07
431579,1929,384,65.2,0.0,3.1,-1.6,1.07
431580,1933,384,65.2,0.0,3.1,-1.6,1.07
431580,1946,384,65.2,0.0,3.1,-1.6,1.07
431580,1953,384,65.2,0.0,3.1,-1.6,1.07
431593,2162,384,65.2,0.0,3.1,-1.6,1.07
431594,2117,384,65.2,0.0,3.1,-1.6,1.07
431594,2181,384,65.2,0.0,3.1,-1.6,1.07
431615,2192,383,65.2,0.0,3.1,-1.6,1.07
431618,2009,383,65.2,0.0,3.1,-1.6,1.07
431618,1954,383,65.2,0.0,3.1,-1.6,1.07
431619,1924,383,65.2,0.0,3.1,-1.6,1.07
431631,2036,383,65.2,0.0,3.1,-1.6,1.07
431632,2091,383,65.2,0.0,3.1,-1.6,1.07
431632,2085,383,65.2,0.0,3.1,-1.6,1.07
431632,2069,383,65.2,0.0,3.1,-1.6,1.07
431649,2021,383,65.2,0.0,3.1,-1.6,1.07
431649,2027,383,65.2,0.0,3.1,-1.6,1.07
431649,2089,383,65.2,0.0,3.1,-1.6,1.07
431649,2083,383,65.2,0.0,3.1,-1.6,1.07
431662,2018,383,65.2,0.0,3.1,-1.7,1.07
431662,1984,383,65.2,0.0,3.1,-1.7,1.07
431663,2012,383,65.2,0.0,3.1,-1.7,1.07
431681,2048,382,65.2,0.0,3.1,-1.7,1.07
431682,2054,382,65.2,0.0,3.1,-1.7,1.07
431682,2018,382,65.2,0.0,3.1,-1.7,1.07
431682,1986,382,65.2,0.0,3.1,-1.7,1.07
431695,2057,382,65.2,0.0,3.1,-1.7,1.07
431696,2093,382,65.2,0.0,3.1,-1.7,1.07
431696,2085,382,65.2,0.0,3.1,-1.7,1.07
431713,2032,382,65.2,0.0,3.1,-1.8,1.07
431714,2018,382,65.2,0.0,3.1,-1.8,1.07
431714,2030,382,65.2,0.0,3.1,-1.8,1.07
431714,2059,382,65.2,0.0,3.1,-1.8,1.07
431728,2014,381,65.2,0.0,3.1,-1.8,1.07
431728,1996,381,65.2,0.0,3.1,-1.8,1.07
431728,1972,381,65.2,0.0,3.1,-1.8,1.07
431747,2011,381,65.2,0.0,3.1,-1.8,1.07
431748,2041,381,65.2,0.0,3.1,-1.8,1.07
431748,2028,381,65.2,0.0,3.1,-1.8,1.07
431748,2021,381,65.2,0.0,3.1,-1.8,1.07
431761,2006,380,65.2,0.0,3.1,-1.7,1.07
431761,2021,380,65.2,0.0,3.1,-1.7,1.07
431761,2046,380,65.2,0.0,3.1,-1.7,1.07
431781,2053,380,65.2,0.0,3.1,-1.7,1.07
431781,2043,380,65.2,0.0,3.1,-1.7,1.07
431783,2001,380,65.2,0.0,3.1,-1.7,1.07
431784,2107,380,65.2,0.0,3.1,-1.7,1.07
431798,2028,380,65.2,0.0,3.1,-1.7,1.07
431798,2020,380,65.2,0.0,3.1,-1.7,1.07
431799,1998,380,65.2,0.0,3.1,-1.7,1.07
431799,1981,380,65.2,0.0,3.1,-1.7,1.07
431816,2035,379,65.2,0.0,3.1,-1.7,1.08
431817,2061,379,65.2,0.0,3.1,-1.7,1.08
431817,2068,379,65.2,0.0,3.1,-1.7,1.08
431817,2052,379,65.2,0.0,3.1,-1.7,1.08
431830,1778,379,65.2,0.0,3.1,-1.7,1.08
431830,1792,379,65.2,0.0,3.1,-1.7,1.08
431831,1805,379,65.2,0.0,3.1,-1.7,1.08
431849,2068,378,65.2,0.0,3.1,-1.7,1.08
431850,2046,378,65.2,0.0,3.1,-1.7,1.08
431850,2046,378,65.2,0.0,3.1,-1.7,1.08
431850,2060,378,65.2,0.0,3.1,-1.7,1.08
431863,2029,378,65.2,0.0,3.1,-1.6,1.07
431863,2019,378,65.2,0.0,3.1,-1.6,1.07
431863,2009,378,65.2,0.0,3.1,-1.6,1.07
431882,1987,378,65.2,0.0,3.1,-1.6,1.07
431883,2002,378,65.2,0.0,3.1,-1.6,1.07
431883,2012,378,65.2,0.0,3.1,-1.6,1.07
431883,2002,378,65.2,0.0,3.1,-1.6,1.07
431897,2021,377,65.2,0.0,3.1,-1.6,1.07
431897,2028,377,65.2,0.0,3.1,-1.6,1.07
431897,2055,377,65.2,0.0,3.1,-1.6,1.07
431917,2048,377,65.2,0.0,3.2,-1.7,1.08
431919,2031,377,65.2,0.0,3.2,-1.7,1.08
431919,2014,377,65.2,0.0,3.2,-1.7,1.08
431920,1997,377,65.2,0.0,3.2,-1.7,1.08
431933,3172,377,65.2,0.0,3.2,-1.7,1.08
431933,3068,377,65.2,0.0,3.2,-1.7,1.08
431933,3047,377,65.2,0.0,3.2,-1.7,1.08
431934,3017,377,65.2,0.0,3.2,-1.7,1.08
431950,1852,376,65.2,0.0,3.2,-1.7,1.08
431951,1885,376,65.2,0.0,3.2,-1.7,1.08
431951,1881,376,65.2,0.0,3.2,-1.7,1.08
431951,1888,376,65.2,0.0,3.2,-1.7,1.08
431963,2177,376,65.2,0.0,3.2,-1.7,1.09
431964,2176,376,65.2,0.0,3.2,-1.7,1.09
431964,2156,376,65.2,0.0,3.2,-1.7,1.09
431983,2037,376,65.2,0.0,3.2,-1.7,1.09
431986,2233,376,65.2,0.0,3.2,-1.7,1.09
431986,2278,376,65.2,0.0,3.2,-1.7,1.09
431986,2305,376,65.2,0.0,3.2,-1.7,1.09
431999,2000,376,65.2,0.0,3.2,-1.7,1.09
431999,1967,376,65.2,0.0,3.2,-1.7,1.09
432000,1940,376,65.2,0.0,3.2,-1.7,1.09
432000,1941,376,65.2,0.0,3.2,-1.7,1.09
432017,2074,376,65.2,0.0,3.1,-1.8,1.07
432018,2082,376,65.2,0.0,3.1,-1.8,1.07
432018,2067,376,65.2,0.0,3.1,-1.8,1.07
432018,2048,376,65.2,0.0,3.1,-1.8,1.07
432031,1992,376,65.2,0.0,3.1,-1.8,1.07
432031,2015,376,65.2,0.0,3.1,-1.8,1.07
432032,2011,376,65.2,0.0,3.1,-1.8,1.07
432050,2029,375,65.2,0.0,3.1,-1.8,1.07
432051,2019,375,65.2,0.0,3.1,-1.8,1.07
432051,2021,375,65.2,0.0,3.1,-1.8,1.07
432051,2039,375,65.2,0.0,3.1,-1.8,1.07
432065,2054,375,65.2,0.0,3.0,-1.8,1.07
432065,2035,375,65.2,0.0,3.0,-1.8,1.07
432065,2017,375,65.2,0.0,3.0,-1.8,1.07
432083,2022,375,65.2,0.0,3.0,-1.8,1.07
432083,2035,375,65.2,0.0,3.0,-1.8,1.07
432083,2043,375,65.2,0.0,3.0,-1.8,1.07
432083,2021,375,65.2,0.0,3.0,-1.8,1.07
432097,2017,375,65.2,0.0,3.0,-1.8,1.07
432098,2025,375,65.2,0.0,3.0,-1.8,1.07
432098,2042,375,65.2,0.0,3.0,-1.8,1.07
432117,2043,375,65.2,0.0,3.0,-1.8,1.10
432119,2030,375,65.2,0.0,3.0,-1.8,1.10
432119,2026,375,65.2,0.0,3.0,-1.8,1.10
432120,2021,375,65.2,0.0,3.0,-1.8,1.10
432132,2035,375,65.2,0.0,3.0,-1.8,1.10
432133,2045,375,65.2,0.0,3.0,-1.8,1.10
432133,2028,375,65.2,0.0,3.0,-1.8,1.10
432133,2020,375,65.2,0.0,3.0,-1.8,1.10
432150,2016,376,65.2,0.0,3.0,-1.8,1.10
432151,2035,376,65.2,0.0,3.0,-1.8,1.10
432151,2032,376,65.2,0.0,3.0,-1.8,1.10
432151,2029,376,65.2,0.0,3.0,-1.8,1.10
432165,2024,376,65.2,0.0,3.3,-1.8,1.07
432165,2026,376,65.2,0.0,3.3,-1.8,1.07
432165,2054,376,65.2,0.0,3.3,-1.8,1.07
432183,2039,376,65.2,0.0,3.3,-1.8,1.07
432183,2029,376,65.2,0.0,3.3,-1.8,1.07
432183,2024,376,65.2,0.0,3.3,-1.8,1.07
432184,2054,376,65.2,0.0,3.3,-1.8,1.07
432197,2028,376,65.2,0.0,3.3,-1.8,1.07
432198,2028,376,65.2,0.0,3.3,-1.8,1.07
432199,2005,376,65.2,0.0,3.3,-1.8,1.07
432199,1994,376,65.2,0.0,3.3,-1.8,1.07
432217,2049,376,65.2,0.0,3.0,-1.4,1.08
432217,2054,376,65.2,0.0,3.0,-1.4,1.08
432218,2061,376,65.2,0.0,3.0,-1.4,1.08
432218,2055,376,65.2,0.0,3.0,-1.4,1.08
432230,2025,376,65.2,0.0,3.0,-1.4,1.08
432231,2038,376,65.2,0.0,3.0,-1.4,1.08
432231,2049,376,65.2,0.0,3.0,-1.4,1.08
432250,2014,376,65.2,0.0,3.0,-1.4,1.08
432253,2034,376,65.2,0.0,3.0,-1.4,1.08
432253,2030,376,65.2,0.0,3.0,-1.4,1.08
432253,2030,376,65.2,0.0,3.0,-1.4,1.08
432266,2024,376,65.2,0.0,3.1,-1.5,1.07
432266,2023,376,65.2,0.0,3.1,-1.5,1.07
432267,2021,376,65.2,0.0,3.1,-1.5,1.07
432267,2011,376,65.2,0.0,3.1,-1.5,1.07
432282,2015,376,65.2,0.0,3.1,-1.5,1.07
432283,2037,376,65.2,0.0,3.1,-1.5,1.07
432283,2059,376,65.2,0.0,3.1,-1.5,1.07
432283,2035,376,65.2,0.0,3.1,-1.5,1.07
432297,2031,376,65.2,0.0,3.1,-1.5,1.07
432297,2032,376,65.2,0.0,3.1,-1.5,1.07
432297,2039,376,65.2,0.0,3.1,-1.5,1.07
432318,2035,377,65.2,0.0,3.2,-1.6,1.07
432320,2009,377,65.2,0.0,3.2,-1.6,1.07
432320,1997,377,65.2,0.0,3.2,-1.6,1.07
432321,1999,377,65.2,0.0,3.2,-1.6,1.07
432334,2133,377,65.2,0.0,3.2,-1.6,1.07
432335,2126,377,65.2,0.0,3.2,-1.6,1.07
432335,2106,377,65.2,0.0,3.2,-1.6,1.07
432335,2103,377,65.2,0.0,3.2,-1.6,1.07
432351,2002,377,65.2,0.0,3.2,-1.6,1.07
432351,2019,377,65.2,0.0,3.2,-1.6,1.07
432352,2017,377,65.2,0.0,3.2,-1.6,1.07
432352,2015,377,65.2,0.0,3.2,-1.6,1.07
432365,2065,377,65.2,0.0,3.1,-1.8,1.08
432366,2021,377,65.2,0.0,3.1,-1.8,1.08
432366,2018,377,65.2,0.0,3.1,-1.8,1.08
432366,2035,377,65.2,0.0,3.1,-1.8,1.08
432384,2027,377,65.2,0.0,3.1,-1.8,1.08
432385,2025,377,65.2,0.0,3.1,-1.8,1.08
432385,2033,377,65.2,0.0,3.1,-1.8,1.08
432385,2034,377,65.2,0.0,3.1,-1.8,1.08
432398,2047,377,65.2,0.0,3.1,-1.8,1.08
432398,2035,377,65.2,0.0,3.1,-1.8,1.08
432398,2030,377,65.2,0.0,3.1,-1.8,1.08
432418,2029,377,65.2,0.0,3.2,-1.9,1.08
432418,2035,377,65.2,0.0,3.2,-1.9,1.08
432420,2025,377,65.2,0.0,3.2,-1.9,1.08
432420,2033,377,65.2,0.0,3.2,-1.9,1.08
432434,2064,378,65.2,0.0,3.2,-1.9,1.08
432434,2061,378,65.2,0.0,3.2,-1.9,1.08
432434,2040,378,65.2,0.0,3.2,-1.9,1.08
432435,2055,378,65.2,0.0,3.2,-1.9,1.08
432450,2015,378,65.2,0.0,3.2,-1.9,1.08
432451,2016,378,65.2,0.0,3.2,-1.9,1.08
432451,2017,378,65.2,0.0,3.2,-1.9,1.08
432451,2031,378,65.2,0.0,3.2,-1.9,1.08
432465,2029,378,65.2,0.0,3.3,-1.8,1.07
432465,2015,378,65.2,0.0,3.3,-1.8,1.07
432465,2031,378,65.2,0.0,3.3,-1.8,1.07
432484,2062,378,65.2,0.0,3.3,-1.8,1.07
432485,2023,378,65.2,0.0,3.3,-1.8,1.07
432485,2021,378,65.2,0.0,3.3,-1.8,1.07
432485,2028,378,65.2,0.0,3.3,-1.8,1.07
432498,2036,378,65.2,0.0,3.3,-1.8,1.07
432498,2044,378,65.2,0.0,3.3,-1.8,1.07
432499,2029,378,65.2,0.0,3.3,-1.8,1.07
432517,2037,378,65.2,0.0,3.2,-1.8,1.08
432518,2054,378,65.2,0.0,3.2,-1.8,1.08
432518,2020,378,65.2,0.0,3.2,-1.8,1.08
432518,2027,378,65.2,0.0,3.2,-1.8,1.08
432531,2015,378,65.2,0.0,3.2,-1.8,1.08
432531,2017,378,65.2,0.0,3.2,-1.8,1.08
432531,2004,378,65.2,0.0,3.2,-1.8,1.08
432550,2074,378,65.2,0.0,3.2,-1.8,1.08
432551,2064,378,65.2,0.0,3.2,-1.8,1.08
432551,2035,378,65.2,0.0,3.2,-1.8,1.08
432551,2028,378,65.2,0.0,3.2,-1.8,1.08
432565,2041,379,65.2,0.0,3.1,-1.6,1.07
432565,2035,379,65.2,0.0,3.1,-1.6,1.07
432565,2039,379,65.2,0.0,3.1,-1.6,1.07
432583,2019,379,65.2,0.0,3.1,-1.6,1.07
432584,2023,379,65.2,0.0,3.1,-1.6,1.07
432584,2045,379,65.2,0.0,3.1,-1.6,1.07
432584,2046,379,65.2,0.0,3.1,-1.6,1.07
432597,2023,379,65.2,0.0,3.1,-1.6,1.07
432597,2046,379,65.2,0.0,3.1,-1.6,1.07
432597,2043,379,65.2,0.0,3.1,-1.6,1.07
432617,2036,379,65.2,0.0,3.1,-1.7,1.08
432619,2033,379,65.2,0.0,3.1,-1.7,1.08
432619,2037,379,65.2,0.0,3.1,-1.7,1.08
432620,2052,379,65.2,0.0,3.1,-1.7,1.08
432633,2033,379,65.2,0.0,3.1,-1.7,1.08
432634,2037,379,65.2,0.0,3.1,-1.7,1.08
432634,2028,379,65.2,0.0,3.1,-1.7,1.08
432634,2026,379,65.2,0.0,3.1,-1.7,1.08
432650,2046,379,65.2,0.0,3.1,-1.7,1.08
432651,2033,379,65.2,0.0,3.1,-1.7,1.08
432651,2022,379,65.2,0.0,3.1,-1.7,1.08
432651,2026,379,65.2,0.0,3.1,-1.7,1.08
432664,2035,379,65.2,0.0,3.2,-1.8,1.07
432665,2035,379,65.2,0.0,3.2,-1.8,1.07
432665,2042,379,65.2,0.0,3.2,-1.8,1.07
432684,2033,380,65.2,0.0,3.2,-1.8,1.07
432684,2087,380,65.2,0.0,3.2,-1.8,1.07
432684,2080,380,65.2,0.0,3.2,-1.8,1.07
432686,2145,380,65.2,0.0,3.2,-1.8,1.07
432698,2023,380,65.2,0.0,3.2,-1.8,1.07
432699,2012,380,65.2,0.0,3.2,-1.8,1.07
432699,2015,380,65.2,0.0,3.2,-1.8,1.07
432699,1994,380,65.2,0.0,3.2,-1.8,1.07
432717,2048,380,65.2,0.0,3.2,-1.8,1.07
432718,2060,380,65.2,0.0,3.2,-1.8,1.07
432718,2051,380,65.2,0.0,3.2,-1.8,1.07
432718,2059,380,65.2,0.0,3.2,-1.8,1.07
432730,2018,380,65.2,0.0,3.3,-1.8,1.08
432731,2019,380,65.2,0.0,3.3,-1.8,1.08
432731,2042,380,65.2,0.0,3.3,-1.8,1.08
432750,2373,380,65.2,0.0,3.3,-1.8,1.08
432753,2281,380,65.2,0.0,3.3,-1.8,1.08
432753,2283,380,65.2,0.0,3.3,-1.8,1.08
432754,2283,380,65.2,0.0,3.3,-1.8,1.08
432766,1922,380,65.2,0.0,3.3,-1.8,1.08
432767,1917,380,65.2,0.0,3.3,-1.8,1.08
432767,1894,380,65.2,0.0,3.3,-1.8,1.08
432768,1899,380,65.2,0.0,3.3,-1.8,1.08
432786,2122,381,65.2,0.0,3.2,-1.7,1.08
432786,2120,381,65.2,0.0,3.2,-1.7,1.08
432786,2120,381,65.2,0.0,3.2,-1.7,1.08
432787,2117,381,65.2,0.0,3.2,-1.7,1.08
432799,1995,381,65.2,0.0,3.2,-1.7,1.08
432800,2015,381,65.2,0.0,3.2,-1.7,1.08
432800,2009,381,65.2,0.0,3.2,-1.7,1.08
432819,2079,381,65.2,0.0,3.2,-1.7,1.08
432819,2035,381,65.2,0.0,3.2,-1.7,1.08
432819,2034,381,65.2,0.0,3.2,-1.7,1.08
432822,2039,381,65.2,0.0,3.2,-1.7,1.08
432834,2038,382,65.2,0.0,3.2,-1.6,1.07
432835,2033,382,65.2,0.0,3.2,-1.6,1.07
432835,2032,382,65.2,0.0,3.2,-1.6,1.07
432835,2023,382,65.2,0.0,3.2,-1.6,1.07
432852,2035,382,65.2,0.0,3.2,-1.6,1.07
432852,2038,382,65.2,0.0,3.2,-1.6,1.07
432852,2033,382,65.2,0.0,3.2,-1.6,1.07
432853,2027,382,65.2,0.0,3.2,-1.6,1.07
432865,2031,382,65.2,0.0,3.2,-1.6,1.07
432866,2035,382,65.2,0.0,3.2,-1.6,1.07
432866,2034,382,65.2,0.0,3.2,-1.6,1.07
432884,2032,382,65.2,0.0,3.2,-1.5,1.08
432885,2025,382,65.2,0.0,3.2,-1.5,1.08
432885,2025,382,65.2,0.0,3.2,-1.5,1.08
432885,2023,382,65.2,0.0,3.2,-1.5,1.08
432898,2039,382,65.2,0.0,3.2,-1.5,1.08
432899,2039,382,65.2,0.0,3.2,-1.5,1.08
432900,2033,382,65.2,0.0,3.2,-1.5,1.08
432900,2040,382,65.2,0.0,3.2,-1.5,1.08
432918,2022,383,65.2,0.0,3.2,-1.5,1.08
432918,2012,383,65.2,0.0,3.2,-1.5,1.08
432918,2030,383,65.2,0.0,3.2,-1.5,1.08
432918,2034,383,65.2,0.0,3.2,-1.5,1.08
432932,2306,383,65.2,0.0,3.2,-1.7,1.08
432932,2290,383,65.2,0.0,3.2,-1.7,1.08
432933,2295,383,65.2,0.0,3.2,-1.7,1.08
432950,2407,383,65.2,0.0,3.2,-1.7,1.08
432951,2417,383,65.2,0.0,3.2,-1.7,1.08
432951,2391,383,65.2,0.0,3.2,-1.7,1.08
432951,2409,383,65.2,0.0,3.2,-1.7,1.08
432964,1912,384,65.2,0.0,3.2,-1.7,1.08
432965,1913,384,65.2,0.0,3.2,-1.7,1.08
432965,1886,384,65.2,0.0,3.2,-1.7,1.08
432983,2037,384,65.2,0.0,3.2,-1.7,1.08
432984,2035,384,65.2,0.0,3.2,-1.7,1.08
432984,2068,384,65.2,0.0,3.2,-1.7,1.08
432984,2092,384,65.2,0.0,3.2,-1.7,1.08
432996,2019,384,65.2,0.0,3.3,-1.8,1.08
432997,2002,384,65.2,0.0,3.3,-1.8,1.08
432997,2003,384,65.2,0.0,3.3,-1.8,1.08
433017,2057,385,65.2,0.0,3.3,-1.8,1.08
433019,2049,385,65.2,0.0,3.3,-1.8,1.08
433020,2033,385,65.2,0.0,3.3,-1.8,1.08
433020,2011,385,65.2,0.0,3.3,-1.8,1.08
433034,2022,385,65.2,0.0,3.3,-1.8,1.08
433034,2045,385,65.2,0.0,3.3,-1.8,1.08
433034,2050,385,65.2,0.0,3.3,-1.8,1.08
433035,2038,385,65.2,0.0,3.3,-1.8,1.08
433053,2005,386,65.2,0.0,3.2,-1.7,1.08
433053,1976,386,65.2,0.0,3.2,-1.7,1.08
433053,2036,386,65.2,0.0,3.2,-1.7,1.08
433054,2042,386,65.2,0.0,3.2,-1.7,1.08
433066,2043,386,65.2,0.0,3.2,-1.7,1.08
433067,2022,386,65.2,0.0,3.2,-1.7,1.08
433067,2024,386,65.2,0.0,3.2,-1.7,1.08
433085,2065,386,65.2,0.0,3.2,-1.7,1.08
433086,2077,386,65.2,0.0,3.2,-1.7,1.08
433086,2064,386,65.2,0.0,3.2,-1.7,1.08
433086,2050,386,65.2,0.0,3.2,-1.7,1.08
433098,2019,386,65.2,0.0,3.0,-1.7,1.08
433099,2041,386,65.2,0.0,3.0,-1.7,1.08
433099,2044,386,65.2,0.0,3.0,-1.7,1.08
433118,2032,387,65.2,0.0,3.0,-1.7,1.08
433121,2013,387,65.2,0.0,3.0,-1.7,1.08
433122,2029,387,65.2,0.0,3.0,-1.7,1.08
433122,2042,387,65.2,0.0,3.0,-1.7,1.08
433135,2057,387,65.2,0.0,3.0,-1.7,1.08
433135,2048,387,65.2,0.0,3.0,-1.7,1.08
433135,2025,387,65.2,0.0,3.0,-1.7,1.08
433136,2054,387,65.2,0.0,3.0,-1.7,1.08
433154,2030,387,65.2,0.0,3.0,-1.6,1.08
433155,2037,387,65.2,0.0,3.0,-1.6,1.08
433155,2056,387,65.2,0.0,3.0,-1.6,1.08
433155,2048,387,65.2,0.0,3.0,-1.6,1.08
433168,1996,388,65.2,0.0,3.0,-1.6,1.08
433168,2014,388,65.2,0.0,3.0,-1.6,1.08
433168,2011,388,65.2,0.0,3.0,-1.6,1.08
433186,2027,388,65.2,0.0,3.0,-1.6,1.08
433187,2019,388,65.2,0.0,3.0,-1.6,1.08
433187,2020,388,65.2,0.0,3.0,-1.6,1.08
433187,2033,388,65.2,0.0,3.0,-1.6,1.08
433200,2056,388,65.2,0.0,3.1,-1.6,1.06
433201,2037,388,65.2,0.0,3.1,-1.6,1.06
433201,2027,388,65.2,0.0,3.1,-1.6,1.06
433218,2027,388,65.2,0.0,3.1,-1.6,1.06
433219,2040,388,65.2,0.0,3.1,-1.6,1.06
433219,2037,388,65.2,0.0,3.1,-1.6,1.06
433219,2024,388,65.2,0.0,3.1,-1.6,1.06
433233,2021,389,65.2,0.0,3.1,-1.6,1.06
433234,2030,389,65.2,0.0,3.1,-1.6,1.06
433234,2049,389,65.2,0.0,3.1,-1.6,1.06
433234,2052,389,65.2,0.0,3.1,-1.6,1.06
433253,2027,389,65.2,0.0,3.1,-1.7,1.08
433253,2025,389,65.2,0.0,3.1,-1.7,1.08
433253,2034,389,65.2,0.0,3.1,-1.7,1.08
433253,2045,389,65.2,0.0,3.1,-1.7,1.08
433266,2338,389,65.2,0.0,3.1,-1.7,1.08
433267,2367,389,65.2,0.0,3.1,-1.7,1.08
433267,2380,389,65.2,0.0,3.1,-1.7,1.08
433285,1894,389,65.2,0.0,3.1,-1.7,1.08
433286,1920,389,65.2,0.0,3.1,-1.7,1.08
433286,1892,389,65.2,0.0,3.1,-1.7,1.08
433286,1867,389,65.2,0.0,3.1,-1.7,1.08
433299,2075,389,65.2,0.0,3.2,-1.7,1.08
433299,2104,389,65.2,0.0,3.2,-1.7,1.08
433299,2124,389,65.2,0.0,3.2,-1.7,1.08
433318,2039,389,65.2,0.0,3.2,-1.7,1.08
433321,2015,389,65.2,0.0,3.2,-1.7,1.08
433321,2023,389,65.2,0.0,3.2,-1.7,1.08
433321,2043,389,65.2,0.0,3.2,-1.7,1.08
433334,2088,389,65.2,0.0,3.2,-1.7,1.08
433334,2070,389,65.2,0.0,3.2,-1.7,1.08
433334,2049,389,65.2,0.0,3.2,-1.7,1.08
433335,2043,389,65.2,0.0,3.2,-1.7,1.08
433352,2046,389,65.2,0.0,3.1,-1.8,1.07
433353,2067,389,65.2,0.0,3.1,-1.8,1.07
433353,2050,389,65.2,0.0,3.1,-1.8,1.07
433353,2030,389,65.2,0.0,3.1,-1.8,1.07
433366,2073,389,65.2,0.0,3.1,-1.8,1.07
433366,2107,389,65.2,0.0,3.1,-1.8,1.07
433366,2122,389,65.2,0.0,3.1,-1.8,1.07
433387,2048,389,65.2,0.0,3.1,-1.8,1.07
433390,2030,389,65.2,0.0,3.1,-1.8,1.07
433390,2024,389,65.2,0.0,3.1,-1.8,1.07
433390,2038,389,65.2,0.0,3.1,-1.8,1.07
433403,2044,389,65.2,0.0,3.1,-1.8,1.07
433403,2039,389,65.2,0.0,3.1,-1.8,1.07
433403,2017,389,65.2,0.0,3.1,-1.8,1.07
433403,2014,389,65.2,0.0,3.1,-1.8,1.07
433420,2029,388,65.2,0.0,3.1,-1.8,1.07
433420,2044,388,65.2,0.0,3.1,-1.8,1.07
433421,2035,388,65.2,0.0,3.1,-1.8,1.07
433421,2018,388,65.2,0.0,3.1,-1.8,1.07
433433,2029,388,65.2,0.0,3.1,-1.8,1.07
433434,2035,388,65.2,0.0,3.1,-1.8,1.07
433434,2039,388,65.2,0.0,3.1,-1.8,1.07
433452,2022,388,65.2,0.0,3.1,-1.8,1.08
433453,2004,388,65.2,0.0,3.1,-1.8,1.08
433453,1994,388,65.2,0.0,3.1,-1.8,1.08
433453,2020,388,65.2,0.0,3.1,-1.8,1.08
433466,2271,388,65.2,0.0,3.1,-1.8,1.08
433466,2306,388,65.2,0.0,3.1,-1.8,1.08
433467,2322,388,65.2,0.0,3.1,-1.8,1.08
433486,1986,388,65.2,0.0,3.1,-1.8,1.08
433486,2031,388,65.2,0.0,3.1,-1.8,1.08
433486,2026,388,65.2,0.0,3.1,-1.8,1.08
433486,2011,388,65.2,0.0,3.1,-1.8,1.08
433500,2027,388,65.2,0.0,3.0,-1.7,1.08
433501,2034,388,65.2,0.0,3.0,-1.7,1.08
433501,2044,388,65.2,0.0,3.0,-1.7,1.08
433501,2035,388,65.2,0.0,3.0,-1.7,1.08
433518,2028,388,65.2,0.0,3.0,-1.7,1.08
433519,2028,388,65.2,0.0,3.0,-1.7,1.08
433519,2049,388,65.2,0.0,3.0,-1.7,1.08
433519,2063,388,65.2,0.0,3.0,-1.7,1.08
433533,2030,388,65.2,0.0,3.0,-1.7,1.08
433533,2009,388,65.2,0.0,3.0,-1.7,1.08
433533,2008,388,65.2,0.0,3.0,-1.7,1.08
433552,2003,388,65.2,0.0,3.0,-1.7,1.08
433554,2043,388,65.2,0.0,3.0,-1.7,1.08
433554,2036,388,65.2,0.0,3.0,-1.7,1.08
433554,2027,388,65.2,0.0,3.0,-1.7,1.08
433567,2006,388,65.2,0.0,3.3,-1.5,1.42
433567,2016,388,65.2,0.0,3.3,-1.5,1.42
433567,1962,388,65.2,0.0,3.3,-1.5,1.42
433568,1981,388,65.2,0.0,3.3,-1.5,1.42
433586,2086,387,65.2,0.0,3.3,-1.5,1.42
433587,2096,387,65.2,0.0,3.3,-1.5,1.42
433587,2105,387,65.2,0.0,3.3,-1.5,1.42
433587,2122,387,65.2,0.0,3.3,-1.5,1.42
433601,2029,387,65.2,0.0,3.3,-1.5,1.42
433602,1994,387,65.2,0.0,3.3,-1.5,1.42
433602,1992,387,65.2,0.0,3.3,-1.5,1.42
433602,2001,387,65.2,0.0,3.3,-1.5,1.42
433620,2060,387,65.2,0.0,2.8,-1.7,0.97
433621,2035,387,65.2,0.0,2.8,-1.7,0.97
433621,2008,387,65.2,0.0,2.8,-1.7,0.97
433621,2008,387,65.2,0.0,2.8,-1.7,0.97
433633,2029,387,65.2,0.0,2.8,-1.7,0.97
433634,2031,387,65.2,0.0,2.8,-1.7,0.97
433634,2042,387,65.2,0.0,2.8,-1.7,0.97
433653,2038,387,65.2,0.0,2.8,-1.7,0.97
433655,2054,387,65.2,0.0,2.8,-1.7,0.97
433656,2049,387,65.2,0.0,2.8,-1.7,0.97
433656,2062,387,65.2,0.0,2.8,-1.7,0.97
433669,2592,387,65.2,0.0,2.8,-1.6,1.12
433670,2591,387,65.2,0.0,2.8,-1.6,1.12
433670,2607,387,65.2,0.0,2.8,-1.6,1.12
433670,2633,387,65.2,0.0,2.8,-1.6,1.12
433686,2073,387,65.2,0.0,2.8,-1.6,1.12
433687,2082,387,65.2,0.0,2.8,-1.6,1.12
433687,2060,387,65.2,0.0,2.8,-1.6,1.12
433687,2066,387,65.2,0.0,2.8,-1.6,1.12
433701,2021,387,65.2,0.0,2.8,-1.6,1.12
433701,2042,387,65.2,0.0,2.8,-1.6,1.12
433702,2020,387,65.2,0.0,2.8,-1.6,1.12
433702,1980,387,65.2,0.0,2.8,-1.6,1.12
433721,2023,386,65.2,0.0,3.0,-1.6,1.09
433723,2047,386,65.2,0.0,3.0,-1.6,1.09
433723,2073,386,65.2,0.0,3.0,-1.6,1.09
433723,2047,386,65.2,0.0,3.0,-1.6,1.09
433736,2036,386,65.2,0.0,3.0,-1.6,1.09
433736,2011,386,65.2,0.0,3.0,-1.6,1.09
433737,2035,386,65.2,0.0,3.0,-1.6,1.09
433737,2051,386,65.2,0.0,3.0,-1.6,1.09
433754,2255,386,65.2,0.0,3.0,-1.6,1.09
433755,2250,386,65.2,0.0,3.0,-1.6,1.09
433755,2218,386,65.2,0.0,3.0,-1.6,1.09
433755,2233,386,65.2,0.0,3.0,-1.6,1.09
433768,2304,386,65.2,0.0,3.1,-1.5,1.08
433769,2299,386,65.2,0.0,3.1,-1.5,1.08
433769,2290,386,65.2,0.0,3.1,-1.5,1.08
433786,2422,386,65.2,0.0,3.1,-1.5,1.08
433787,2536,386,65.2,0.0,3.1,-1.5,1.08
433787,2584,386,65.2,0.0,3.1,-1.5,1.08
433787,2603,386,65.2,0.0,3.1,-1.5,1.08
433801,1855,386,65.2,0.0,3.1,-1.5,1.08
433801,1840,386,65.2,0.0,3.1,-1.5,1.08
433802,1813,386,65.2,0.0,3.1,-1.5,1.08
433822,1932,386,65.2,0.0,3.1,-1.4,1.10
433824,1821,386,65.2,0.0,3.1,-1.4,1.10
433824,1991,386,65.2,0.0,3.1,-1.4,1.10
433824,2061,386,65.2,0.0,3.1,-1.4,1.10
433837,2286,386,65.2,0.0,3.1,-1.4,1.10
433838,2186,386,65.2,0.0,3.1,-1.4,1.10
433838,2153,386,65.2,0.0,3.1,-1.4,1.10
433838,2126,386,65.2,0.0,3.1,-1.4,1.10
433855,2371,385,65.2,0.0,3.1,-1.4,1.10
433855,2357,385,65.2,0.0,3.1,-1.4,1.10
433855,2357,385,65.2,0.0,3.1,-1.4,1.10
433855,2371,385,65.2,0.0,3.1,-1.4,1.10
433869,2300,385,65.2,0.0,3.1,-1.4,1.06
433869,2295,385,65.2,0.0,3.1,-1.4,1.06
433870,2291,385,65.2,0.0,3.1,-1.4,1.06
433887,2189,385,65.2,0.0,3.1,-1.4,1.06
433887,2212,385,65.2,0.0,3.1,-1.4,1.06
433887,2203,385,65.2,0.0,3.1,-1.4,1.06
433887,2175,385,65.2,0.0,3.1,-1.4,1.06
433901,1955,385,65.2,0.0,3.1,-1.4,1.06
433902,1951,385,65.2,0.0,3.1,-1.4,1.06
433902,1954,385,65.2,0.0,3.1,-1.4,1.06
433903,1942,385,65.2,0.0,3.1,-1.4,1.06
433927,2161,385,65.2,0.0,2.9,-1.7,1.08
433930,2180,385,65.2,0.0,2.9,-1.7,1.08
433930,2203,385,65.2,0.0,2.9,-1.7,1.08
433930,2207,385,65.2,0.0,2.9,-1.7,1.08
433943,1989,385,65.2,0.0,2.9,-1.7,1.08
433943,1957,385,65.2,0.0,2.9,-1.7,1.08
433944,1941,385,65.2,0.0,2.9,-1.7,1.08
433944,1954,385,65.2,0.0,2.9,-1.7,1.08
433960,1975,385,65.2,0.0,2.9,-1.7,1.08
433961,1971,385,65.2,0.0,2.9,-1.7,1.08
433961,1957,385,65.2,0.0,2.9,-1.7,1.08
433961,1941,385,65.2,0.0,2.9,-1.7,1.08
433974,2028,384,65.2,0.0,3.1,-1.8,1.08
433974,2048,384,65.2,0.0,3.1,-1.8,1.08
433974,2068,384,65.2,0.0,3.1,-1.8,1.08
433993,2119,384,65.2,0.0,3.1,-1.8,1.08
433994,2105,384,65.2,0.0,3.1,-1.8,1.08
433994,2102,384,65.2,0.0,3.1,-1.8,1.08
433994,2109,384,65.2,0.0,3.1,-1.8,1.08
434007,2194,384,65.2,0.0,3.1,-1.8,1.08
434007,2158,384,65.2,0.0,3.1,-1.8,1.08
434007,2198,384,65.2,0.0,3.1,-1.8,1.08
434027,2274,384,65.2,0.0,3.3,-1.8,1.07
434027,2303,384,65.2,0.0,3.3,-1.8,1.07
434027,2310,384,65.2,0.0,3.3,-1.8,1.07
434030,2337,384,65.2,0.0,3.3,-1.8,1.07
434043,1907,384,65.2,0.0,3.3,-1.8,1.07
434043,1927,384,65.2,0.0,3.3,-1.8,1.07
434043,1895,384,65.2,0.0,3.3,-1.8,1.07
434043,1899,384,65.2,0.0,3.3,-1.8,1.07
434060,2002,383,65.2,0.0,3.3,-1.8,1.07
434060,1992,383,65.2,0.0,3.3,-1.8,1.07
434061,1999,383,65.2,0.0,3.3,-1.8,1.07
434061,1995,383,65.2,0.0,3.3,-1.8,1.07
434073,2042,383,65.2,0.0,3.3,-1.6,1.07
434074,2000,383,65.2,0.0,3.3,-1.6,1.07
434074,2031,383,65.2,0.0,3.3,-1.6,1.07
434093,1924,383,65.2,0.0,3.3,-1.6,1.07
434095,1947,383,65.2,0.0,3.3,-1.6,1.07
434095,1944,383,65.2,0.0,3.3,-1.6,1.07
434095,1937,383,65.2,0.0,3.3,-1.6,1.07
434109,2277,383,65.2,0.0,3.3,-1.6,1.07
434109,2287,383,65.2,0.0,3.3,-1.6,1.07
434110,2298,383,65.2,0.0,3.3,-1.6,1.07
434110,2289,383,65.2,0.0,3.3,-1.6,1.07
434128,1958,383,65.2,0.0,3.1,-1.5,1.06
434128,1930,383,65.2,0.0,3.1,-1.5,1.06
434128,1948,383,65.2,0.0,3.1,-1.5,1.06
434129,1949,383,65.2,0.0,3.1,-1.5,1.06
434142,2008,382,65.2,0.0,3.1,-1.5,1.06
434143,2037,382,65.2,0.0,3.1,-1.5,1.06
434143,2057,382,65.2,0.0,3.1,-1.5,1.06
434143,2030,382,65.2,0.0,3.1,-1.5,1.06
434160,2021,382,65.2,0.0,3.1,-1.5,1.06
434161,2022,382,65.2,0.0,3.1,-1.5,1.06
434161,2023,382,65.2,0.0,3.1,-1.5,1.06
434161,2029,382,65.2,0.0,3.1,-1.5,1.06
434174,2033,382,65.2,0.0,3.1,-1.5,1.08
434174,2017,382,65.2,0.0,3.1,-1.5,1.08
434174,2041,382,65.2,0.0,3.1,-1.5,1.08
434193,2245,382,65.2,0.0,3.1,-1.5,1.08
434194,2228,382,65.2,0.0,3.1,-1.5,1.08
434194,2227,382,65.2,0.0,3.1,-1.5,1.08
434194,2251,382,65.2,0.0,3.1,-1.5,1.08
434208,1864,381,65.2,0.0,3.1,-1.5,1.08
434208,1843,381,65.2,0.0,3.1,-1.5,1.08
434208,1857,381,65.2,0.0,3.1,-1.5,1.08
434225,2161,381,65.2,0.0,3.1,-1.5,1.08
434226,2179,381,65.2,0.0,3.1,-1.5,1.08
434226,2192,381,65.2,0.0,3.1,-1.5,1.08
434226,2205,381,65.2,0.0,3.1,-1.5,1.08
434240,1983,380,65.2,0.0,3.0,-1.7,1.08
434240,1967,380,65.2,0.0,3.0,-1.7,1.08
434241,1970,380,65.2,0.0,3.0,-1.7,1.08
434241,1979,380,65.2,0.0,3.0,-1.7,1.08
434260,2030,380,65.2,0.0,3.0,-1.7,1.08
434260,2027,380,65.2,0.0,3.0,-1.7,1.08
434260,1980,380,65.2,0.0,3.0,-1.7,1.08
434260,2017,380,65.2,0.0,3.0,-1.7,1.08
434273,2013,380,65.2,0.0,3.0,-1.7,1.08
434274,2009,380,65.2,0.0,3.0,-1.7,1.08
434274,2004,380,65.2,0.0,3.0,-1.7,1.08
434293,2156,379,65.2,0.0,3.1,-1.8,1.09
434293,2121,379,65.2,0.0,3.1,-1.8,1.09
434293,2140,379,65.2,0.0,3.1,-1.8,1.09
434295,2116,379,65.2,0.0,3.1,-1.8,1.09
434308,2025,379,65.2,0.0,3.1,-1.8,1.09
434309,1987,379,65.2,0.0,3.1,-1.8,1.09
434309,2012,379,65.2,0.0,3.1,-1.8,1.09
434309,2016,379,65.2,0.0,3.1,-1.8,1.09
434325,2066,379,65.2,0.0,3.1,-1.8,1.09
434325,2071,379,65.2,0.0,3.1,-1.8,1.09
434325,2086,379,65.2,0.0,3.1,-1.8,1.09
434326,2085,379,65.2,0.0,3.1,-1.8,1.09
434339,2025,378,65.2,0.0,3.2,-1.9,1.08
434339,2027,378,65.2,0.0,3.2,-1.9,1.08
434340,2023,378,65.2,0.0,3.2,-1.9,1.08
434359,2019,378,65.2,0.0,3.2,-1.9,1.08
434359,2009,378,65.2,0.0,3.2,-1.9,1.08
434359,2014,378,65.2,0.0,3.2,-1.9,1.08
434359,2021,378,65.2,0.0,3.2,-1.9,1.08
434372,2069,377,65.2,0.0,3.2,-1.9,1.08
434373,2053,377,65.2,0.0,3.2,-1.9,1.08
434373,2052,377,65.2,0.0,3.2,-1.9,1.08
434392,2034,377,65.2,0.0,3.2,-1.9,1.08
434392,2083,377,65.2,0.0,3.2,-1.9,1.08
434392,2071,377,65.2,0.0,3.2,-1.9,1.08
434394,2050,377,65.2,0.0,3.2,-1.9,1.08
434408,2154,377,65.2,0.0,3.2,-1.6,1.07
434408,2159,377,65.2,0.0,3.2,-1.6,1.07
434408,2176,377,65.2,0.0,3.2,-1.6,1.07
434408,2168,377,65.2,0.0,3.2,-1.6,1.07
434424,2002,376,65.2,0.0,3.2,-1.6,1.07
434425,2012,376,65.2,0.0,3.2,-1.6,1.07
434425,2040,376,65.2,0.0,3.2,-1.6,1.07
434425,2047,376,65.2,0.0,3.2,-1.6,1.07
434439,2021,376,65.2,0.0,3.2,-1.6,1.07
434439,2024,376,65.2,0.0,3.2,-1.6,1.07
434440,2000,376,65.2,0.0,3.2,-1.6,1.07
434440,2022,376,65.2,0.0,3.2,-1.6,1.07
434458,2015,376,65.2,0.0,3.2,-1.6,1.07
434459,2027,376,65.2,0.0,3.2,-1.6,1.07
434459,2014,376,65.2,0.0,3.2,-1.6,1.07
434459,2014,376,65.2,0.0,3.2,-1.6,1.07
434472,2078,376,65.2,0.0,3.2,-1.7,1.07
434472,2091,376,65.2,0.0,3.2,-1.7,1.07
434472,2092,376,65.2,0.0,3.2,-1.7,1.07
434491,2004,375,65.2,0.0,3.2,-1.7,1.07
434492,2002,375,65.2,0.0,3.2,-1.7,1.07
434492,1997,375,65.2,0.0,3.2,-1.7,1.07
434492,1998,375,65.2,0.0,3.2,-1.7,1.07
434505,2057,375,65.2,0.0,3.2,-1.7,1.07
434505,2114,375,65.2,0.0,3.2,-1.7,1.07
434505,2129,375,65.2,0.0,3.2,-1.7,1.07
434525,1956,375,65.2,0.0,3.2,-1.8,1.08
434525,2080,375,65.2,0.0,3.2,-1.8,1.08
434526,2083,375,65.2,0.0,3.2,-1.8,1.08
434528,2085,375,65.2,0.0,3.2,-1.8,1.08
434541,1967,375,65.2,0.0,3.2,-1.8,1.08
434541,2023,375,65.2,0.0,3.2,-1.8,1.08
434542,2009,375,65.2,0.0,3.2,-1.8,1.08
434542,2008,375,65.2,0.0,3.2,-1.8,1.08
434564,2009,375,65.2,0.0,3.2,-1.8,1.08
434567,2185,375,65.2,0.0,3.2,-1.8,1.08
434567,2192,375,65.2,0.0,3.2,-1.8,1.08
434567,2211,375,65.2,0.0,3.2,-1.8,1.08
434580,2001,375,65.2,0.0,3.1,-1.8,1.08
434580,1991,375,65.2,0.0,3.1,-1.8,1.08
434580,1998,375,65.2,0.0,3.1,-1.8,1.08
434580,1979,375,65.2,0.0,3.1,-1.8,1.08
434597,2013,375,65.2,0.0,3.1,-1.8,1.08
434598,2019,375,65.2,0.0,3.1,-1.8,1.08
434598,2027,375,65.2,0.0,3.1,-1.8,1.08
434598,2019,375,65.2,0.0,3.1,-1.8,1.08
434611,2348,375,65.2,0.0,3.1,-1.8,1.08
434611,2332,375,65.2,0.0,3.1,-1.8,1.08
434611,2349,375,65.2,0.0,3.1,-1.8,1.08
434630,2114,375,65.2,0.0,3.2,-1.8,1.08
434631,2115,375,65.2,0.0,3.2,-1.8,1.08
434631,2083,375,65.2,0.0,3.2,-1.8,1.08
434631,2071,375,65.2,0.0,3.2,-1.8,1.08
434644,2011,375,65.2,0.0,3.2,-1.8,1.08
434644,2069,375,65.2,0.0,3.2,-1.8,1.08
434645,2059,375,65.2,0.0,3.2,-1.8,1.08
434663,2024,375,65.2,0.0,3.2,-1.8,1.08
434664,2021,375,65.2,0.0,3.2,-1.8,1.08
434664,2034,375,65.2,0.0,3.2,-1.8,1.08
434664,2059,375,65.2,0.0,3.2,-1.8,1.08
434678,2050,375,65.2,0.0,3.1,-1.8,1.07
434678,2018,375,65.2,0.0,3.1,-1.8,1.07
434678,2008,375,65.2,0.0,3.1,-1.8,1.07
434696,2106,375,65.2,0.0,3.1,-1.8,1.07
434697,2100,375,65.2,0.0,3.1,-1.8,1.07
434697,2098,375,65.2,0.0,3.1,-1.8,1.07
434697,2048,375,65.2,0.0,3.1,-1.8,1.07
434710,2223,375,65.2,0.0,3.1,-1.8,1.07
434710,2232,375,65.2,0.0,3.1,-1.8,1.07
434710,2253,375,65.2,0.0,3.1,-1.8,1.07
434730,2119,375,65.2,0.0,3.1,-1.6,1.09
434732,2108,375,65.2,0.0,3.1,-1.6,1.09
434732,2081,375,65.2,0.0,3.1,-1.6,1.09
434733,2086,375,65.2,0.0,3.1,-1.6,1.09
434746,2114,376,65.2,0.0,3.1,-1.6,1.09
434747,2094,376,65.2,0.0,3.1,-1.6,1.09
434747,2060,376,65.2,0.0,3.1,-1.6,1.09
434747,2074,376,65.2,0.0,3.1,-1.6,1.09
434763,2001,376,65.2,0.0,3.1,-1.6,1.09
434763,2009,376,65.2,0.0,3.1,-1.6,1.09
434763,2024,376,65.2,0.0,3.1,-1.6,1.09
434764,2003,376,65.2,0.0,3.1,-1.6,1.09
434777,1981,376,65.2,0.0,3.1,-1.6,1.07
434777,1998,376,65.2,0.0,3.1,-1.6,1.07
434778,2018,376,65.2,0.0,3.1,-1.6,1.07
434796,2068,376,65.2,0.0,3.1,-1.6,1.07
434797,2034,376,65.2,0.0,3.1,-1.6,1.07
434797,2028,376,65.2,0.0,3.1,-1.6,1.07
434797,1972,376,65.2,0.0,3.1,-1.6,1.07
434810,2052,376,65.2,0.0,3.1,-1.6,1.07
434810,2052,376,65.2,0.0,3.1,-1.6,1.07
434810,2040,376,65.2,0.0,3.1,-1.6,1.07
434829,1678,376,65.2,0.0,3.1,-1.6,1.07
434830,1634,376,65.2,0.0,3.1,-1.6,1.07
434830,1652,376,65.2,0.0,3.1,-1.6,1.07
434830,1640,376,65.2,0.0,3.1,-1.6,1.07
434843,2126,376,65.2,0.0,3.1,-1.7,1.09
434843,2132,376,65.2,0.0,3.1,-1.7,1.09
434843,2161,376,65.2,0.0,3.1,-1.7,1.09
434862,1991,376,65.2,0.0,3.1,-1.7,1.09
434863,1986,376,65.2,0.0,3.1,-1.7,1.09
434866,2125,376,65.2,0.0,3.1,-1.7,1.09
434867,2124,376,65.2,0.0,3.1,-1.7,1.09
434867,2161,376,65.2,0.0,3.1,-1.7,1.09
434880,2042,376,65.2,0.0,3.1,-1.7,1.09
434880,2013,376,65.2,0.0,3.1,-1.7,1.09
434881,1973,376,65.2,0.0,3.1,-1.7,1.09
434899,1921,377,65.2,0.0,3.3,-1.8,1.06
434900,1978,377,65.2,0.0,3.3,-1.8,1.06
434900,2005,377,65.2,0.0,3.3,-1.8,1.06
434900,1992,377,65.2,0.0,3.3,-1.8,1.06
434913,2112,377,65.2,0.0,3.3,-1.8,1.06
434913,2095,377,65.2,0.0,3.3,-1.8,1.06
434913,2122,377,65.2,0.0,3.3,-1.8,1.06
434931,2138,377,65.2,0.0,3.3,-1.8,1.06
434932,2103,377,65.2,0.0,3.3,-1.8,1.06
434932,2094,377,65.2,0.0,3.3,-1.8,1.06
434932,2081,377,65.2,0.0,3.3,-1.8,1.06
434945,2103,377,65.2,0.0,3.1,-1.8,1.08
434946,2181,377,65.2,0.0,3.1,-1.8,1.08
434946,2171,377,65.2,0.0,3.1,-1.8,1.08
434963,1954,377,65.2,0.0,3.1,-1.8,1.08
434964,1946,377,65.2,0.0,3.1,-1.8,1.08
434964,1968,377,65.2,0.0,3.1,-1.8,1.08
434964,1985,377,65.2,0.0,3.1,-1.8,1.08
434978,2068,377,65.2,0.0,3.1,-1.8,1.08
434978,2037,377,65.2,0.0,3.1,-1.8,1.08
434978,2026,377,65.2,0.0,3.1,-1.8,1.08
434998,2029,377,65.2,0.0,3.2,-1.8,1.08
434998,2074,377,65.2,0.0,3.2,-1.8,1.08
434998,2055,377,65.2,0.0,3.2,-1.8,1.08
435000,2006,377,65.2,0.0,3.2,-1.8,1.08
435013,2158,377,65.2,0.0,3.2,-1.8,1.08
435013,2159,377,65.2,0.0,3.2,-1.8,1.08
435013,2182,377,65.2,0.0,3.2,-1.8,1.08
435013,2182,377,65.2,0.0,3.2,-1.8,1.08
435030,1989,378,65.2,0.0,3.2,-1.8,1.08
435031,2003,378,65.2,0.0,3.2,-1.8,1.08
435031,1993,378,65.2,0.0,3.2,-1.8,1.08
435031,1999,378,65.2,0.0,3.2,-1.8,1.08
435044,2044,378,65.2,0.0,3.3,-1.8,1.08
435045,2095,378,65.2,0.0,3.3,-1.8,1.08
435045,2083,378,65.2,0.0,3.3,-1.8,1.08
435063,1936,378,65.2,0.0,3.3,-1.8,1.08
435063,1923,378,65.2,0.0,3.3,-1.8,1.08
435064,1895,378,65.2,0.0,3.3,-1.8,1.08
435067,2020,378,65.2,0.0,3.3,-1.8,1.08
435068,2013,378,65.2,0.0,3.3,-1.8,1.08
435080,2048,378,65.2,0.0,3.3,-1.8,1.08
435081,2060,378,65.2,0.0,3.3,-1.8,1.08
435081,2044,378,65.2,0.0,3.3,-1.8,1.08
435098,2016,378,65.2,0.0,3.2,-1.8,1.07
435099,2001,378,65.2,0.0,3.2,-1.8,1.07
435099,2005,378,65.2,0.0,3.2,-1.8,1.07
435099,2031,378,65.2,0.0,3.2,-1.8,1.07
435112,1520,378,65.2,0.0,3.2,-1.8,1.07
435113,1507,378,65.2,0.0,3.2,-1.8,1.07
435113,1497,378,65.2,0.0,3.2,-1.8,1.07
435131,2051,379,65.2,0.0,3.2,-1.8,1.07
435132,2040,379,65.2,0.0,3.2,-1.8,1.07
435132,2052,379,65.2,0.0,3.2,-1.8,1.07
435132,2037,379,65.2,0.0,3.2,-1.8,1.07
435146,2071,379,111.9,0.0,3.1,-1.6,1.07
435146,2074,379,111.9,0.0,3.1,-1.6,1.07
435146,2101,379,111.9,0.0,3.1,-1.6,1.07
435164,1997,379,111.9,0.0,3.1,-1.6,1.07
435165,2037,379,111.9,0.0,3.1,-1.6,1.07
435165,1981,379,111.9,0.0,3.1,-1.6,1.07
435165,2008,379,111.9,0.0,3.1,-1.6,1.07
435178,2010,379,111.9,0.0,3.1,-1.6,1.07
435179,2044,379,111.9,0.0,3.1,-1.6,1.07
435179,2046,379,111.9,0.0,3.1,-1.6,1.07
435198,2027,379,111.9,0.0,3.1,-1.6,1.08
435200,2004,379,111.9,0.0,3.1,-1.6,1.08
435200,2027,379,111.9,0.0,3.1,-1.6,1.08
435201,2042,379,111.9,0.0,3.1,-1.6,1.08
435214,2080,379,111.9,0.0,3.1,-1.6,1.08
435215,2055,379,111.9,0.0,3.1,-1.6,1.08
435215,2018,379,111.9,0.0,3.1,-1.6,1.08
435215,2047,379,111.9,0.0,3.1,-1.6,1.08
435231,2322,380,111.9,0.0,3.1,-1.6,1.08
435231,2345,380,111.9,0.0,3.1,-1.6,1.08
435231,2341,380,111.9,0.0,3.1,-1.6,1.08
435231,2307,380,111.9,0.0,3.1,-1.6,1.08
435245,1954,380,111.9,0.0,3.1,-1.7,1.08
435245,1986,380,111.9,0.0,3.1,-1.7,1.08
435245,1975,380,111.9,0.0,3.1,-1.7,1.08
435264,2096,380,111.9,0.0,3.1,-1.7,1.08
435265,2139,380,111.9,0.0,3.1,-1.7,1.08
435267,2239,380,111.9,0.0,3.1,-1.7,1.08
435268,2242,380,111.9,0.0,3.1,-1.7,1.08
435281,1983,380,111.9,0.0,3.1,-1.7,1.08
435281,1962,380,111.9,0.0,3.1,-1.7,1.08
435281,1942,380,111.9,0.0,3.1,-1.7,1.08
435282,1953,380,111.9,0.0,3.1,-1.7,1.08
435299,2035,381,111.9,0.0,3.1,-1.7,1.07
435300,2048,381,111.9,0.0,3.1,-1.7,1.07
435300,2042,381,111.9,0.0,3.1,-1.7,1.07
435300,2010,381,111.9,0.0,3.1,-1.7,1.07
435314,857,381,111.9,0.0,3.1,-1.7,1.07
435314,944,381,111.9,0.0,3.1,-1.7,1.07
435314,924,381,111.9,0.0,3.1,-1.7,1.07
435331,2243,381,111.9,0.0,3.1,-1.7,1.07
435332,2181,381,111.9,0.0,3.1,-1.7,1.07
435332,2254,381,111.9,0.0,3.1,-1.7,1.07
435332,2294,381,111.9,0.0,3.1,-1.7,1.07
435346,1985,381,111.9,0.0,3.1,-1.7,1.08
435346,1982,381,111.9,0.0,3.1,-1.7,1.08
435346,1993,381,111.9,0.0,3.1,-1.7,1.08
435366,2095,382,111.9,0.0,3.1,-1.7,1.08
435366,2118,382,111.9,0.0,3.1,-1.7,1.08
435366,2093,382,111.9,0.0,3.1,-1.7,1.08
435367,2008,382,111.9,0.0,3.1,-1.7,1.08
435379,1979,382,111.9,0.0,3.1,-1.7,1.08
435380,2026,382,111.9,0.0,3.1,-1.7,1.08
435380,2100,382,111.9,0.0,3.1,-1.7,1.08
435399,2061,382,111.9,0.0,3.1,-1.7,1.08
435400,1972,382,111.9,0.0,3.1,-1.7,1.08
435400,1942,382,111.9,0.0,3.1,-1.7,1.08
435400,2027,382,111.9,0.0,3.1,-1.7,1.08
435414,2118,383,111.9,0.0,3.1,-1.7,1.08
435414,2094,383,111.9,0.0,3.1,-1.7,1.08
435414,2020,383,111.9,0.0,3.1,-1.7,1.08
435431,1881,383,111.9,0.0,3.1,-1.7,1.08
435432,1961,383,111.9,0.0,3.1,-1.7,1.08
435432,1989,383,111.9,0.0,3.1,-1.7,1.08
435432,1971,383,111.9,0.0,3.1,-1.7,1.08
435446,2033,383,111.9,0.0,3.1,-1.7,1.07
435446,2091,383,111.9,0.0,3.1,-1.7,1.07
435446,2170,383,111.9,0.0,3.1,-1.7,1.07
435466,2117,384,111.9,0.0,3.1,-1.7,1.07
435466,2188,384,111.9,0.0,3.1,-1.7,1.07
435467,2150,384,111.9,0.0,3.1,-1.7,1.07
435468,2248,384,111.9,0.0,3.1,-1.7,1.07
435481,1979,384,111.9,0.0,3.1,-1.7,1.07
435481,2033,384,111.9,0.0,3.1,-1.7,1.07
435482,1967,384,111.9,0.0,3.1,-1.7,1.07
435482,1899,384,111.9,0.0,3.1,-1.7,1.07
435500,1993,384,111.9,0.0,3.1,-1.7,1.08
435500,2070,384,111.9,0.0,3.1,-1.7,1.08
435501,2131,384,111.9,0.0,3.1,-1.7,1.08
435501,2103,384,111.9,0.0,3.1,-1.7,1.08
435514,2000,385,111.9,0.0,3.1,-1.7,1.08
435515,1985,385,111.9,0.0,3.1,-1.7,1.08
435515,2028,385,111.9,0.0,3.1,-1.7,1.08
435531,2302,385,111.9,0.0,3.1,-1.7,1.08
435532,2269,385,111.9,0.0,3.1,-1.7,1.08
435532,2218,385,111.9,0.0,3.1,-1.7,1.08
435532,2210,385,111.9,0.0,3.1,-1.7,1.08
435546,2000,385,111.9,0.0,3.2,-1.7,1.07
435546,2068,385,111.9,0.0,3.2,-1.7,1.07
435546,2034,385,111.9,0.0,3.2,-1.7,1.07
435566,2100,386,111.9,0.0,3.2,-1.7,1.07
435566,2148,386,111.9,0.0,3.2,-1.7,1.07
435568,2266,386,111.9,0.0,3.2,-1.7,1.07
435569,2322,386,111.9,0.0,3.2,-1.7,1.07
435583,1958,386,111.9,0.0,3.2,-1.7,1.07
435584,1924,386,111.9,0.0,3.2,-1.7,1.07
435584,1894,386,111.9,0.0,3.2,-1.7,1.07
435584,1931,386,111.9,0.0,3.2,-1.7,1.07
435601,2061,386,111.9,0.0,3.2,-1.7,1.08
435601,2049,386,111.9,0.0,3.2,-1.7,1.08
435601,2006,386,111.9,0.0,3.2,-1.7,1.08
435602,1998,386,111.9,0.0,3.2,-1.7,1.08
435615,2062,387,111.9,0.0,3.2,-1.7,1.08
435616,2085,387,111.9,0.0,3.2,-1.7,1.08
435616,2072,387,111.9,0.0,3.2,-1.7,1.08
435634,2025,387,111.9,0.0,3.2,-1.7,1.08
435635,2024,387,111.9,0.0,3.2,-1.7,1.08
435635,2049,387,111.9,0.0,3.2,-1.7,1.08
435635,2068,387,111.9,0.0,3.2,-1.7,1.08
435648,2058,387,111.9,0.0,3.1,-1.7,1.07
435648,2006,387,111.9,0.0,3.1,-1.7,1.07
435648,2000,387,111.9,0.0,3.1,-1.7,1.07
435668,2194,388,111.9,0.0,3.1,-1.7,1.07
435668,2224,388,111.9,0.0,3.1,-1.7,1.07
435668,2222,388,111.9,0.0,3.1,-1.7,1.07
435670,2203,388,111.9,0.0,3.1,-1.7,1.07
435684,1948,388,111.9,0.0,3.1,-1.7,1.07
435684,1964,388,111.9,0.0,3.1,-1.7,1.07
435684,1984,388,111.9,0.0,3.1,-1.7,1.07
435684,1968,388,111.9,0.0,3.1,-1.7,1.07
435703,2016,388,111.9,0.0,3.1,-1.6,1.07
435703,2028,388,111.9,0.0,3.1,-1.6,1.07
435703,2051,388,111.9,0.0,3.1,-1.6,1.07
435703,2066,388,111.9,0.0,3.1,-1.6,1.07
435716,2143,388,111.9,0.0,3.1,-1.6,1.07
435717,2059,388,111.9,0.0,3.1,-1.6,1.07
435718,2041,388,111.9,0.0,3.1,-1.6,1.07
435735,2129,389,111.9,0.0,3.1,-1.6,1.07
435736,2128,389,111.9,0.0,3.1,-1.6,1.07
435736,2116,389,111.9,0.0,3.1,-1.6,1.07
435736,2100,389,111.9,0.0,3.1,-1.6,1.07
435749,2090,389,111.9,0.0,3.2,-1.7,1.07
435749,2110,389,111.9,0.0,3.2,-1.7,1.07
435749,2109,389,111.9,0.0,3.2,-1.7,1.07
435768,2213,389,111.9,0.0,3.2,-1.7,1.07
435769,2210,389,111.9,0.0,3.2,-1.7,1.07
435769,2200,389,111.9,0.0,3.2,-1.7,1.07
435769,2260,389,111.9,0.0,3.2,-1.7,1.07
435783,1994,389,111.9,0.0,3.2,-1.7,1.07
435783,1973,389,111.9,0.0,3.2,-1.7,1.07
435783,1956,389,111.9,0.0,3.2,-1.7,1.07
435802,1977,389,111.9,0.0,3.1,-1.7,1.07
435803,1984,389,111.9,0.0,3.1,-1.7,1.07
435805,2012,389,111.9,0.0,3.1,-1.7,1.07
435805,1994,389,111.9,0.0,3.1,-1.7,1.07
435818,2010,389,111.9,0.0,3.1,-1.7,1.07
435819,2006,389,111.9,0.0,3.1,-1.7,1.07
435819,2017,389,111.9,0.0,3.1,-1.7,1.07
435819,2027,389,111.9,0.0,3.1,-1.7,1.07
435841,1974,389,111.9,0.0,3.1,-1.7,1.07
435844,1910,388,111.9,0.0,3.1,-1.7,1.07
435844,1896,388,111.9,0.0,3.1,-1.7,1.07
435844,1902,388,111.9,0.0,3.1,-1.7,1.07
435857,2131,388,111.9,0.0,3.1,-1.7,1.09
435858,2111,388,111.9,0.0,3.1,-1.7,1.09
435858,2108,388,111.9,0.0,3.1,-1.7,1.09
435858,2086,388,111.9,0.0,3.1,-1.7,1.09
435875,2190,388,111.9,0.0,3.1,-1.7,1.09
435875,2165,388,111.9,0.0,3.1,-1.7,1.09
435875,2163,388,111.9,0.0,3.1,-1.7,1.09
435876,2172,388,111.9,0.0,3.1,-1.7,1.09
435888,2157,388,111.9,0.0,3.1,-1.7,1.09
435889,2191,388,111.9,0.0,3.1,-1.7,1.09
435889,2174,388,111.9,0.0,3.1,-1.7,1.09
435906,2096,388,111.9,0.0,3.2,-1.7,1.08
435907,2141,388,111.9,0.0,3.2,-1.7,1.08
435907,2154,388,111.9,0.0,3.2,-1.7,1.08
435907,2171,388,111.9,0.0,3.2,-1.7,1.08
435920,1991,388,111.9,0.0,3.2,-1.7,1.08
435921,2028,388,111.9,0.0,3.2,-1.7,1.08
435921,1993,388,111.9,0.0,3.2,-1.7,1.08
435940,2038,388,111.9,0.0,3.2,-1.7,1.08
435940,2027,388,111.9,0.0,3.2,-1.7,1.08
435943,1991,388,111.9,0.0,3.2,-1.7,1.08
435943,1980,388,111.9,0.0,3.2,-1.7,1.08
435956,2049,388,111.9,0.0,3.1,-1.8,1.07
435956,2036,388,111.9,0.0,3.1,-1.8,1.07
435956,2044,388,111.9,0.0,3.1,-1.8,1.07
435957,2053,388,111.9,0.0,3.1,-1.8,1.07
435973,2426,388,111.9,0.0,3.1,-1.8,1.07
435974,2393,388,111.9,0.0,3.1,-1.8,1.07
435974,2384,388,111.9,0.0,3.1,-1.8,1.07
435974,2391,388,111.9,0.0,3.1,-1.8,1.07
435987,2008,388,111.9,0.0,3.1,-1.8,1.07
435987,2022,388,111.9,0.0,3.1,-1.8,1.07
435987,1985,388,111.9,0.0,3.1,-1.8,1.07
436006,2044,387,111.9,0.0,3.1,-1.8,1.07
436007,2105,387,111.9,0.0,3.1,-1.8,1.07
436007,2127,387,111.9,0.0,3.1,-1.8,1.07
436007,2112,387,111.9,0.0,3.1,-1.8,1.07
436020,2015,387,111.9,0.0,3.1,-1.7,1.08
436020,2013,387,111.9,0.0,3.1,-1.7,1.08
436020,2019,387,111.9,0.0,3.1,-1.7,1.08
436039,2056,387,111.9,0.0,3.1,-1.7,1.08
436040,2034,387,111.9,0.0,3.1,-1.7,1.08
436040,2008,387,111.9,0.0,3.1,-1.7,1.08
436040,1998,387,111.9,0.0,3.1,-1.7,1.08
436055,1990,387,111.9,0.0,3.1,-1.7,1.08
436056,1993,387,111.9,0.0,3.1,-1.7,1.08
436057,2020,387,111.9,0.0,3.1,-1.7,1.08
436058,2001,387,111.9,0.0,3.1,-1.7,1.08
436076,2079,387,111.9,0.0,3.1,-1.6,1.08
436076,2063,387,111.9,0.0,3.1,-1.6,1.08
436076,2078,387,111.9,0.0,3.1,-1.6,1.08
436077,2086,387,111.9,0.0,3.1,-1.6,1.08
436089,2180,387,111.9,0.0,3.1,-1.6,1.08
436090,2176,387,111.9,0.0,3.1,-1.6,1.08
436090,2189,387,111.9,0.0,3.1,-1.6,1.08
436108,2081,387,111.9,0.0,3.1,-1.6,1.08
436109,2075,387,111.9,0.0,3.1,-1.6,1.08
436109,2041,387,111.9,0.0,3.1,-1.6,1.08
436109,2030,387,111.9,0.0,3.1,-1.6,1.08
436122,2019,387,111.9,0.0,3.2,-1.6,1.09
436123,2031,387,111.9,0.0,3.2,-1.6,1.09
436123,2027,387,111.9,0.0,3.2,-1.6,1.09
436142,1933,387,111.9,0.0,3.2,-1.6,1.09
436142,1913,387,111.9,0.0,3.2,-1.6,1.09
436142,1912,387,111.9,0.0,3.2,-1.6,1.09
436142,1932,387,111.9,0.0,3.2,-1.6,1.09
436155,2127,386,111.9,0.0,3.2,-1.6,1.09
436156,2111,386,111.9,0.0,3.2,-1.6,1.09
436156,2093,386,111.9,0.0,3.2,-1.6,1.09
436180,2042,386,111.9,0.0,3.1,-1.7,1.08
436182,1999,386,111.9,0.0,3.1,-1.7,1.08
436183,1984,386,111.9,0.0,3.1,-1.7,1.08
436183,1958,386,111.9,0.0,3.1,-1.7,1.08
436196,1973,386,111.9,0.0,3.1,-1.7,1.08
436196,1998,386,111.9,0.0,3.1,-1.7,1.08
436196,2033,386,111.9,0.0,3.1,-1.7,1.08
436196,2032,386,111.9,0.0,3.1,-1.7,1.08
436213,2098,386,111.9,0.0,3.1,-1.7,1.08
436213,2070,386,111.9,0.0,3.1,-1.7,1.08
436214,2090,386,111.9,0.0,3.1,-1.7,1.08
436214,2100,386,111.9,0.0,3.1,-1.7,1.08
436226,2103,386,111.9,0.0,3.1,-1.7,1.07
436227,2084,386,111.9,0.0,3.1,-1.7,1.07
436227,2094,386,111.9,0.0,3.1,-1.7,1.07
436246,2061,386,111.9,0.0,3.1,-1.7,1.07
436248,2004,386,111.9,0.0,3.1,-1.7,1.07
436248,1934,386,111.9,0.0,3.1,-1.7,1.07
436248,1908,386,111.9,0.0,3.1,-1.7,1.07
436262,2027,386,111.9,0.0,3.1,-1.7,1.07
436262,2046,386,111.9,0.0,3.1,-1.7,1.07
436263,2066,386,111.9,0.0,3.1,-1.7,1.07
436263,2069,386,111.9,0.0,3.1,-1.7,1.07
436281,1993,385,111.9,0.0,3.2,-1.7,1.07
436281,1947,385,111.9,0.0,3.2,-1.7,1.07
436281,1964,385,111.9,0.0,3.2,-1.7,1.07
436282,1984,385,111.9,0.0,3.2,-1.7,1.07
436294,1742,385,111.9,0.0,3.2,-1.7,1.07
436295,1742,385,111.9,0.0,3.2,-1.7,1.07
436295,1750,385,111.9,0.0,3.2,-1.7,1.07
436313,2063,385,111.9,0.0,3.2,-1.7,1.07
436314,2076,385,111.9,0.0,3.2,-1.7,1.07
436314,2076,385,111.9,0.0,3.2,-1.7,1.07
436314,2072,385,111.9,0.0,3.2,-1.7,1.07
436327,2059,385,111.9,0.0,3.1,-1.7,1.08
436327,2097,385,111.9,0.0,3.1,-1.7,1.08
436327,2110,385,111.9,0.0,3.1,-1.7,1.08
436346,2073,385,111.9,0.0,3.1,-1.7,1.08
436347,2087,385,111.9,0.0,3.1,-1.7,1.08
436347,2084,385,111.9,0.0,3.1,-1.7,1.08
436347,2093,385,111.9,0.0,3.1,-1.7,1.08
436361,2017,385,111.9,0.0,3.1,-1.7,1.08
436361,2029,385,111.9,0.0,3.1,-1.7,1.08
436361,2025,385,111.9,0.0,3.1,-1.7,1.08
436381,2002,385,111.9,0.0,3.2,-1.6,1.13
436381,1982,385,111.9,0.0,3.2,-1.6,1.13
436382,1990,385,111.9,0.0,3.2,-1.6,1.13
436383,2003,385,111.9,0.0,3.2,-1.6,1.13
436396,2239,385,111.9,0.0,3.2,-1.6,1.13
436396,2181,385,111.9,0.0,3.2,-1.6,1.13
436397,2180,385,111.9,0.0,3.2,-1.6,1.13
436413,2042,384,111.9,0.0,3.2,-1.6,1.13
436414,2058,384,111.9,0.0,3.2,-1.6,1.13
436414,2040,384,111.9,0.0,3.2,-1.6,1.13
436414,2020,384,111.9,0.0,3.2,-1.6,1.13
436426,2056,384,111.9,0.0,3.5,-1.5,1.04
436427,2161,384,111.9,0.0,3.5,-1.5,1.04
436427,2158,384,111.9,0.0,3.5,-1.5,1.04
436446,2125,384,111.9,0.0,3.5,-1.5,1.04
436449,2362,384,111.9,0.0,3.5,-1.5,1.04
436449,2377,384,111.9,0.0,3.5,-1.5,1.04
436450,2413,384,111.9,0.0,3.5,-1.5,1.04
436462,1955,384,111.9,0.0,3.5,-1.5,1.04
436463,1941,384,111.9,0.0,3.5,-1.5,1.04
436463,1899,384,111.9,0.0,3.5,-1.5,1.04
436463,1870,384,111.9,0.0,3.5,-1.5,1.04
436481,2030,384,111.9,0.0,3.4,-1.7,1.06
436481,2037,384,111.9,0.0,3.4,-1.7,1.06
436481,2007,384,111.9,0.0,3.4,-1.7,1.06
436481,1971,384,111.9,0.0,3.4,-1.7,1.06
436494,2296,384,111.9,0.0,3.4,-1.7,1.06
436494,2300,384,111.9,0.0,3.4,-1.7,1.06
436495,2338,384,111.9,0.0,3.4,-1.7,1.06
436513,2164,384,111.9,0.0,3.4,-1.7,1.06
436514,2132,384,111.9,0.0,3.4,-1.7,1.06
436514,2094,384,111.9,0.0,3.4,-1.7,1.06
436514,2105,384,111.9,0.0,3.4,-1.7,1.06
436527,2106,383,111.9,0.0,3.3,-1.8,1.07
436527,2206,383,111.9,0.0,3.3,-1.8,1.07
436527,2185,383,111.9,0.0,3.3,-1.8,1.07
436547,1921,383,111.9,0.0,3.3,-1.8,1.07
436547,1924,383,111.9,0.0,3.3,-1.8,1.07
436547,1953,383,111.9,0.0,3.3,-1.8,1.07
436548,1949,383,111.9,0.0,3.3,-1.8,1.07
436561,2052,383,111.9,0.0,3.3,-1.8,1.07
436562,2030,383,111.9,0.0,3.3,-1.8,1.07
436562,2063,383,111.9,0.0,3.3,-1.8,1.07
436580,2016,383,111.9,0.0,3.1,-1.8,1.08
436581,2012,383,111.9,0.0,3.1,-1.8,1.08
436581,1990,383,111.9,0.0,3.1,-1.8,1.08
436581,1968,383,111.9,0.0,3.1,-1.8,1.08
436594,2059,382,111.9,0.0,3.1,-1.8,1.08
436594,2094,382,111.9,0.0,3.1,-1.8,1.08
436594,2078,382,111.9,0.0,3.1,-1.8,1.08
436613,2119,382,111.9,0.0,3.1,-1.8,1.08
436614,2093,382,111.9,0.0,3.1,-1.8,1.08
436614,2117,382,111.9,0.0,3.1,-1.8,1.08
436614,2131,382,111.9,0.0,3.1,-1.8,1.08
436627,2065,382,111.9,0.0,3.2,-1.7,1.07
436627,2077,382,111.9,0.0,3.2,-1.7,1.07
436627,2052,382,111.9,0.0,3.2,-1.7,1.07
436647,2111,382,111.9,0.0,3.2,-1.7,1.07
436647,2190,382,111.9,0.0,3.2,-1.7,1.07
436647,2211,382,111.9,0.0,3.2,-1.7,1.07
436650,2191,381,111.9,0.0,3.2,-1.7,1.07
436663,1961,381,111.9,0.0,3.2,-1.7,1.07
436664,1968,381,111.9,0.0,3.2,-1.7,1.07
436664,1985,381,111.9,0.0,3.2,-1.7,1.07
436664,1992,381,111.9,0.0,3.2,-1.7,1.07
436682,2025,381,111.9,0.0,3.2,-1.6,1.08
436682,2012,381,111.9,0.0,3.2,-1.6,1.08
436682,2023,381,111.9,0.0,3.2,-1.6,1.08
436683,2048,381,111.9,0.0,3.2,-1.6,1.08
436695,2094,381,111.9,0.0,3.2,-1.6,1.08
436695,2073,381,111.9,0.0,3.2,-1.6,1.08
436696,2059,381,111.9,0.0,3.2,-1.6,1.08
436714,1959,380,111.9,0.0,3.2,-1.6,1.08
436715,1978,380,111.9,0.0,3.2,-1.6,1.08
436715,1982,380,111.9,0.0,3.2,-1.6,1.08
436715,1958,380,111.9,0.0,3.2,-1.6,1.08
436728,2156,380,111.9,0.0,3.3,-1.6,1.07
436729,2186,380,111.9,0.0,3.3,-1.6,1.07
436729,2202,380,111.9,0.0,3.3,-1.6,1.07
436747,2044,379,111.9,0.0,3.3,-1.6,1.07
436747,1982,379,111.9,0.0,3.3,-1.6,1.07
436748,1952,379,111.9,0.0,3.3,-1.6,1.07
436748,1924,379,111.9,0.0,3.3,-1.6,1.07
436761,2050,379,111.9,0.0,3.3,-1.6,1.07
436762,2072,379,111.9,0.0,3.3,-1.6,1.07
436762,2041,379,111.9,0.0,3.3,-1.6,1.07
436781,1975,378,111.9,0.0,3.3,-1.7,1.09
436781,1950,378,111.9,0.0,3.3,-1.7,1.09
436781,1997,378,111.9,0.0,3.3,-1.7,1.09
436783,1976,378,111.9,0.0,3.3,-1.7,1.09
436796,2302,378,111.9,0.0,3.3,-1.7,1.09
436796,2255,378,111.9,0.0,3.3,-1.7,1.09
436797,2267,378,111.9,0.0,3.3,-1.7,1.09
436797,2262,378,111.9,0.0,3.3,-1.7,1.09
436814,2092,378,111.9,0.0,3.3,-1.7,1.09
436815,2077,378,111.9,0.0,3.3,-1.7,1.09
436815,2083,378,111.9,0.0,3.3,-1.7,1.09
436815,2077,378,111.9,0.0,3.3,-1.7,1.09
436828,2102,377,111.9,0.0,3.4,-1.8,1.07
436829,2119,377,111.9,0.0,3.4,-1.8,1.07
436829,2110,377,111.9,0.0,3.4,-1.8,1.07
436845,1986,377,111.9,0.0,3.4,-1.8,1.07
436846,2018,377,111.9,0.0,3.4,-1.8,1.07
436846,2033,377,111.9,0.0,3.4,-1.8,1.07
436846,2039,377,111.9,0.0,3.4,-1.8,1.07
436860,2027,377,111.9,0.0,3.4,-1.8,1.07
436860,2019,377,111.9,0.0,3.4,-1.8,1.07
436860,2026,377,111.9,0.0,3.4,-1.8,1.07
436881,2023,376,111.9,0.0,3.2,-1.8,1.08
436883,1995,376,111.9,0.0,3.2,-1.8,1.08
436883,1986,376,111.9,0.0,3.2,-1.8,1.08
436883,1965,376,111.9,0.0,3.2,-1.8,1.08
436896,2113,376,111.9,0.0,3.2,-1.8,1.08
436897,2119,376,111.9,0.0,3.2,-1.8,1.08
436898,2073,376,111.9,0.0,3.2,-1.8,1.08
436899,2040,376,111.9,0.0,3.2,-1.8,1.08
436916,1960,376,111.9,0.0,3.2,-1.8,1.08
436916,1966,376,111.9,0.0,3.2,-1.8,1.08
436916,1972,376,111.9,0.0,3.2,-1.8,1.08
436917,1981,376,111.9,0.0,3.2,-1.8,1.08
436930,2183,376,111.9,0.0,3.2,-1.7,1.09
436930,2137,376,111.9,0.0,3.2,-1.7,1.09
436930,2153,376,111.9,0.0,3.2,-1.7,1.09
436948,2155,375,111.9,0.0,3.2,-1.7,1.09
436949,2177,375,111.9,0.0,3.2,-1.7,1.09
436949,2170,375,111.9,0.0,3.2,-1.7,1.09
436949,2162,375,111.9,0.0,3.2,-1.7,1.09
436962,2013,375,111.9,0.0,3.2,-1.7,1.09
436962,2012,375,111.9,0.0,3.2,-1.7,1.09
436962,2004,375,111.9,0.0,3.2,-1.7,1.09
436982,2029,375,111.9,0.0,3.2,-1.6,1.08
436982,2003,375,111.9,0.0,3.2,-1.6,1.08
436984,2026,375,111.9,0.0,3.2,-1.6,1.08
436984,2035,375,111.9,0.0,3.2,-1.6,1.08
436998,2018,375,111.9,0.0,3.2,-1.6,1.08
436998,2000,375,111.9,0.0,3.2,-1.6,1.08
436998,2016,375,111.9,0.0,3.2,-1.6,1.08
436999,2023,375,111.9,0.0,3.2,-1.6,1.08
437014,2138,375,111.9,0.0,3.2,-1.6,1.08
437015,2131,375,111.9,0.0,3.2,-1.6,1.08
437015,2107,375,111.9,0.0,3.2,-1.6,1.08
437015,2115,375,111.9,0.0,3.2,-1.6,1.08
437029,2081,375,111.9,0.0,3.2,-1.5,1.08
437029,2074,375,111.9,0.0,3.2,-1.5,1.08
437029,2051,375,111.9,0.0,3.2,-1.5,1.08
437048,2039,375,111.9,0.0,3.2,-1.5,1.08
437049,2020,375,111.9,0.0,3.2,-1.5,1.08
437049,2023,375,111.9,0.0,3.2,-1.5,1.08
437049,2007,375,111.9,0.0,3.2,-1.5,1.08
437062,2013,375,111.9,0.0,3.2,-1.5,1.08
437062,2014,375,111.9,0.0,3.2,-1.5,1.08
437062,2007,375,111.9,0.0,3.2,-1.5,1.08
437081,1987,375,111.9,0.0,3.3,-1.6,1.08
437082,1996,375,111.9,0.0,3.3,-1.6,1.08
437082,1984,375,111.9,0.0,3.3,-1.6,1.08
437082,1978,375,111.9,0.0,3.3,-1.6,1.08
437095,2084,375,111.9,0.0,3.3,-1.6,1.08
437095,2087,375,111.9,0.0,3.3,-1.6,1.08
437095,2097,375,111.9,0.0,3.3,-1.6,1.08
437115,2034,375,111.9,0.0,3.3,-1.6,1.08
437115,2013,375,111.9,0.0,3.3,-1.6,1.08
437116,2013,375,111.9,0.0,3.3,-1.6,1.08
437118,2006,375,111.9,0.0,3.3,-1.6,1.08
437131,2053,375,111.9,0.0,3.2,-1.8,1.06
437131,2031,375,111.9,0.0,3.2,-1.8,1.06
437131,2021,375,111.9,0.0,3.2,-1.8,1.06
437132,2014,375,111.9,0.0,3.2,-1.8,1.06
437149,1182,375,111.9,0.0,3.2,-1.8,1.06
437149,995,375,111.9,0.0,3.2,-1.8,1.06
437149,898,375,111.9,0.0,3.2,-1.8,1.06
437149,787,375,111.9,0.0,3.2,-1.8,1.06
437162,2174,376,111.9,0.0,3.2,-1.8,1.06
437162,2332,376,111.9,0.0,3.2,-1.8,1.06
437163,2453,376,111.9,0.0,3.2,-1.8,1.06
437181,1597,376,111.9,0.0,3.2,-1.8,1.06
437182,1554,376,111.9,0.0,3.2,-1.8,1.06
437182,1472,376,111.9,0.0,3.2,-1.8,1.06
437182,1438,376,111.9,0.0,3.2,-1.8,1.06
437195,2312,376,111.9,0.0,3.2,-1.8,1.08
437195,2359,376,111.9,0.0,3.2,-1.8,1.08
437195,2350,376,111.9,0.0,3.2,-1.8,1.08
437215,1882,376,111.9,0.0,3.2,-1.8,1.08
437215,1876,376,111.9,0.0,3.2,-1.8,1.08
437218,1961,376,111.9,0.0,3.2,-1.8,1.08
437218,1982,376,111.9,0.0,3.2,-1.8,1.08
437231,2412,376,111.9,0.0,3.2,-1.8,1.08
437231,2366,376,111.9,0.0,3.2,-1.8,1.08
437232,2352,376,111.9,0.0,3.2,-1.8,1.08
437232,2372,376,111.9,0.0,3.2,-1.8,1.08
437250,2157,376,111.9,0.0,3.3,-1.8,1.08
437250,2172,376,111.9,0.0,3.3,-1.8,1.08
437250,2144,376,111.9,0.0,3.3,-1.8,1.08
437250,2134,376,111.9,0.0,3.3,-1.8,1.08
437263,2048,376,111.9,0.0,3.3,-1.8,1.08
437263,2060,376,111.9,0.0,3.3,-1.8,1.08
437264,2041,376,111.9,0.0,3.3,-1.8,1.08
437282,1996,376,111.9,0.0,3.3,-1.8,1.08
437283,1986,376,111.9,0.0,3.3,-1.8,1.08
437283,2018,376,111.9,0.0,3.3,-1.8,1.08
437283,2032,376,111.9,0.0,3.3,-1.8,1.08
437297,1971,376,111.9,0.0,3.3,-1.9,1.08
437297,1938,376,111.9,0.0,3.3,-1.9,1.08
437297,1937,376,111.9,0.0,3.3,-1.9,1.08
437314,2124,376,111.9,0.0,3.3,-1.9,1.08
437315,2149,376,111.9,0.0,3.3,-1.9,1.08
437315,2128,376,111.9,0.0,3.3,-1.9,1.08
437315,2099,376,111.9,0.0,3.3,-1.9,1.08
437329,2312,377,111.9,0.0,3.3,-1.9,1.08
437329,2373,377,111.9,0.0,3.3,-1.9,1.08
437329,2425,377,111.9,0.0,3.3,-1.9,1.08
437350,2043,377,111.9,0.0,3.3,-1.9,1.08
437351,2044,377,111.9,0.0,3.3,-1.9,1.08
437352,2026,377,111.9,0.0,3.3,-1.9,1.08
437352,2032,377,111.9,0.0,3.3,-1.9,1.08
437365,2036,377,111.9,0.0,3.3,-1.9,1.08
437365,2050,377,111.9,0.0,3.3,-1.9,1.08
437365,2027,377,111.9,0.0,3.3,-1.9,1.08
437366,1996,377,111.9,0.0,3.3,-1.9,1.08
437383,1992,377,111.9,0.0,3.3,-1.9,1.08
437383,2026,377,111.9,0.0,3.3,-1.9,1.08
437383,2022,377,111.9,0.0,3.3,-1.9,1.08
437384,2009,377,111.9,0.0,3.3,-1.9,1.08
437397,2000,377,111.9,0.0,3.4,-1.9,1.08
437398,2002,377,111.9,0.0,3.4,-1.9,1.08
437398,2029,377,111.9,0.0,3.4,-1.9,1.08
437415,2020,377,111.9,0.0,3.4,-1.9,1.08
437415,1996,377,111.9,0.0,3.4,-1.9,1.08
437415,1966,377,111.9,0.0,3.4,-1.9,1.08
437415,1960,377,111.9,0.0,3.4,-1.9,1.08
437429,2202,377,111.9,0.0,3.4,-1.9,1.08
437429,2229,377,111.9,0.0,3.4,-1.9,1.08
437430,2224,377,111.9,0.0,3.4,-1.9,1.08
437449,2151,378,111.9,0.0,3.2,-1.8,1.09
437451,2175,378,111.9,0.0,3.2,-1.8,1.09
437451,2191,378,111.9,0.0,3.2,-1.8,1.09
437452,2212,378,111.9,0.0,3.2,-1.8,1.09
437464,1991,378,111.9,0.0,3.2,-1.8,1.09
437465,1974,378,111.9,0.0,3.2,-1.8,1.09
437465,1969,378,111.9,0.0,3.2,-1.8,1.09
437482,1975,378,111.9,0.0,3.2,-1.8,1.09
437483,1987,378,111.9,0.0,3.2,-1.8,1.09
437483,1994,378,111.9,0.0,3.2,-1.8,1.09
437483,1979,378,111.9,0.0,3.2,-1.8,1.09
437497,2143,378,111.9,0.0,3.1,-1.8,1.09
437497,2106,378,111.9,0.0,3.1,-1.8,1.09
437497,2145,378,111.9,0.0,3.1,-1.8,1.09
437515,2006,378,111.9,0.0,3.1,-1.8,1.09
437515,1985,378,111.9,0.0,3.1,-1.8,1.09
437515,1983,378,111.9,0.0,3.1,-1.8,1.09
437516,1972,378,111.9,0.0,3.1,-1.8,1.09
437529,2078,378,111.9,0.0,3.1,-1.8,1.09
437530,2055,378,111.9,0.0,3.1,-1.8,1.09
437530,2062,378,111.9,0.0,3.1,-1.8,1.09
437549,2151,378,111.9,0.0,3.2,-1.7,1.07
437551,2155,378,111.9,0.0,3.2,-1.7,1.07
437551,2163,378,111.9,0.0,3.2,-1.7,1.07
437551,2167,378,111.9,0.0,3.2,-1.7,1.07
437564,1989,379,111.9,0.0,3.2,-1.7,1.07
437565,1975,379,111.9,0.0,3.2,-1.7,1.07
437565,1953,379,111.9,0.0,3.2,-1.7,1.07
437582,1997,379,111.9,0.0,3.2,-1.7,1.07
437583,2010,379,111.9,0.0,3.2,-1.7,1.07
437583,2011,379,111.9,0.0,3.2,-1.7,1.07
437583,1998,379,111.9,0.0,3.2,-1.7,1.07
437596,2099,379,111.9,0.0,3.1,-1.6,1.07
437597,2081,379,111.9,0.0,3.1,-1.6,1.07
437597,2096,379,111.9,0.0,3.1,-1.6,1.07
437614,2058,379,111.9,0.0,3.1,-1.6,1.07
437615,2055,379,111.9,0.0,3.1,-1.6,1.07
437615,2036,379,111.9,0.0,3.1,-1.6,1.07
437615,2031,379,111.9,0.0,3.1,-1.6,1.07
437629,2012,379,111.9,0.0,3.1,-1.6,1.07
437629,1997,379,111.9,0.0,3.1,-1.6,1.07
437629,1963,379,111.9,0.0,3.1,-1.6,1.07
437649,2143,380,111.9,0.0,3.2,-1.5,1.07
437651,2125,380,111.9,0.0,3.2,-1.5,1.07
437651,2137,380,111.9,0.0,3.2,-1.5,1.07
437652,2142,380,111.9,0.0,3.2,-1.5,1.07
437664,2005,380,111.9,0.0,3.2,-1.5,1.07
437665,1985,380,111.9,0.0,3.2,-1.5,1.07
437665,1965,380,111.9,0.0,3.2,-1.5,1.07
437683,1975,380,111.9,0.0,3.2,-1.5,1.07
437683,1970,380,111.9,0.0,3.2,-1.5,1.07
437684,1964,380,111.9,0.0,3.2,-1.5,1.07
437684,1947,380,111.9,0.0,3.2,-1.5,1.07
437697,2019,380,111.9,0.0,3.1,-1.4,1.08
437698,2077,380,111.9,0.0,3.1,-1.4,1.08
437698,2046,380,111.9,0.0,3.1,-1.4,1.08
437717,2086,380,111.9,0.0,3.1,-1.4,1.08
437717,2056,380,111.9,0.0,3.1,-1.4,1.08
437717,2045,380,111.9,0.0,3.1,-1.4,1.08
437717,2062,380,111.9,0.0,3.1,-1.4,1.08
437730,2122,381,111.9,0.0,3.1,-1.4,1.08
437730,2151,381,111.9,0.0,3.1,-1.4,1.08
437731,2110,381,111.9,0.0,3.1,-1.4,1.08
437749,2038,381,111.9,0.0,3.1,-1.4,1.08
437750,2052,381,111.9,0.0,3.1,-1.4,1.08
437750,2039,381,111.9,0.0,3.1,-1.4,1.08
437750,2028,381,111.9,0.0,3.1,-1.4,1.08
437763,2026,381,111.9,0.0,3.0,-1.6,1.07
437763,2018,381,111.9,0.0,3.0,-1.6,1.07
437763,2033,381,111.9,0.0,3.0,-1.6,1.07
437783,2001,381,111.9,0.0,3.0,-1.6,1.07
437783,1982,381,111.9,0.0,3.0,-1.6,1.07
437786,1967,382,111.9,0.0,3.0,-1.6,1.07
437786,1972,382,111.9,0.0,3.0,-1.6,1.07
437799,2037,382,111.9,0.0,3.0,-1.6,1.07
437800,2038,382,111.9,0.0,3.0,-1.6,1.07
437800,2030,382,111.9,0.0,3.0,-1.6,1.07
437800,2026,382,111.9,0.0,3.0,-1.6,1.07
437818,1907,382,111.9,0.0,3.0,-1.7,1.08
437818,1936,382,111.9,0.0,3.0,-1.7,1.08
437818,1929,382,111.9,0.0,3.0,-1.7,1.08
437819,1932,382,111.9,0.0,3.0,-1.7,1.08
437831,2129,382,111.9,0.0,3.0,-1.7,1.08
437832,2106,382,111.9,0.0,3.0,-1.7,1.08
437832,2129,382,111.9,0.0,3.0,-1.7,1.08
437850,2203,383,111.9,0.0,3.0,-1.7,1.08
437851,2193,383,111.9,0.0,3.0,-1.7,1.08
437851,2185,383,111.9,0.0,3.0,-1.7,1.08
437851,2195,383,111.9,0.0,3.0,-1.7,1.08
437865,1989,383,111.9,0.0,3.0,-1.7,1.07
437865,1990,383,111.9,0.0,3.0,-1.7,1.07
437865,1979,383,111.9,0.0,3.0,-1.7,1.07
437883,2112,383,111.9,0.0,3.0,-1.7,1.07
437883,2170,383,111.9,0.0,3.0,-1.7,1.07
437884,2241,383,111.9,0.0,3.0,-1.7,1.07
437884,2270,383,111.9,0.0,3.0,-1.7,1.07
437898,1979,384,111.9,0.0,3.0,-1.7,1.07
437899,1955,384,111.9,0.0,3.0,-1.7,1.07
437899,1938,384,111.9,0.0,3.0,-1.7,1.07
437899,1927,384,111.9,0.0,3.0,-1.7,1.07
437917,2081,384,111.9,0.0,3.1,-1.7,1.07
437917,2063,384,111.9,0.0,3.1,-1.7,1.07
437918,2074,384,111.9,0.0,3.1,-1.7,1.07
437918,2071,384,111.9,0.0,3.1,-1.7,1.07
437931,2228,384,111.9,0.0,3.1,-1.7,1.07
437931,2238,384,111.9,0.0,3.1,-1.7,1.07
437931,2251,384,111.9,0.0,3.1,-1.7,1.07
437950,2035,385,111.9,0.0,3.1,-1.7,1.07
437951,2031,385,111.9,0.0,3.1,-1.7,1.07
437951,2026,385,111.9,0.0,3.1,-1.7,1.07
437951,2028,385,111.9,0.0,3.1,-1.7,1.07
437965,2031,385,111.9,0.0,3.1,-1.7,1.08
437965,2035,385,111.9,0.0,3.1,-1.7,1.08
437965,2042,385,111.9,0.0,3.1,-1.7,1.08
437982,2165,386,111.9,0.0,3.1,-1.7,1.08
437983,2297,386,111.9,0.0,3.1,-1.7,1.08
437983,2346,386,111.9,0.0,3.1,-1.7,1.08
437983,2402,386,111.9,0.0,3.1,-1.7,1.08
437997,2034,386,111.9,0.0,3.1,-1.7,1.08
437998,1950,386,111.9,0.0,3.1,-1.7,1.08
437998,1910,386,111.9,0.0,3.1,-1.7,1.08
438017,2297,386,111.9,0.0,3.1,-1.8,1.08
438018,2284,386,111.9,0.0,3.1,-1.8,1.08
438019,2254,386,111.9,0.0,3.1,-1.8,1.08
438020,2245,386,111.9,0.0,3.1,-1.8,1.08
438032,2184,387,111.9,0.0,3.1,-1.8,1.08
438033,2171,387,111.9,0.0,3.1,-1.8,1.08
438033,2171,387,111.9,0.0,3.1,-1.8,1.08
438033,2193,387,111.9,0.0,3.1,-1.8,1.08
438051,2205,387,111.9,0.0,3.1,-1.8,1.08
438052,2179,387,111.9,0.0,3.1,-1.8,1.08
438052,2155,387,111.9,0.0,3.1,-1.8,1.08
438052,2159,387,111.9,0.0,3.1,-1.8,1.08
438065,1988,387,111.9,0.0,3.1,-1.8,1.07
438066,2005,387,111.9,0.0,3.1,-1.8,1.07
438066,1977,387,111.9,0.0,3.1,-1.8,1.07
438084,1999,388,111.9,0.0,3.1,-1.8,1.07
438085,2001,388,111.9,0.0,3.1,-1.8,1.07
438085,2032,388,111.9,0.0,3.1,-1.8,1.07
438085,2039,388,111.9,0.0,3.1,-1.8,1.07
438098,2105,388,111.9,0.0,3.1,-1.8,1.07
438098,2068,388,111.9,0.0,3.1,-1.8,1.07
438098,2055,388,111.9,0.0,3.1,-1.8,1.07
438117,2070,388,111.9,0.0,3.0,-1.9,1.08
438118,2072,388,111.9,0.0,3.0,-1.9,1.08
438120,2042,388,111.9,0.0,3.0,-1.9,1.08
438121,2017,388,111.9,0.0,3.0,-1.9,1.08
438134,2167,388,111.9,0.0,3.0,-1.9,1.08
438135,2184,388,111.9,0.0,3.0,-1.9,1.08
438135,2199,388,111.9,0.0,3.0,-1.9,1.08
438135,2176,388,111.9,0.0,3.0,-1.9,1.08
438152,2143,388,111.9,0.0,3.0,-1.9,1.08
438152,2123,388,111.9,0.0,3.0,-1.9,1.08
438152,2178,388,111.9,0.0,3.0,-1.9,1.08
438153,2185,388,111.9,0.0,3.0,-1.9,1.08
438166,2003,388,111.9,0.0,3.1,-1.8,1.09
438166,1961,388,111.9,0.0,3.1,-1.8,1.09
438167,1978,388,111.9,0.0,3.1,-1.8,1.09
438185,1993,388,111.9,0.0,3.1,-1.8,1.09
438185,2004,388,111.9,0.0,3.1,-1.8,1.09
438185,1993,388,111.9,0.0,3.1,-1.8,1.09
438185,1982,388,111.9,0.0,3.1,-1.8,1.09
438198,2019,388,111.9,0.0,3.1,-1.8,1.09
438198,2038,388,111.9,0.0,3.1,-1.8,1.09
438198,2058,388,111.9,0.0,3.1,-1.8,1.09
438218,2101,388,111.9,0.0,3.2,-1.8,1.09
438220,2034,388,111.9,0.0,3.2,-1.8,1.09
438220,2029,388,111.9,0.0,3.2,-1.8,1.09
438221,2033,388,111.9,0.0,3.2,-1.8,1.09
438234,2117,388,111.9,0.0,3.2,-1.8,1.09
438235,2117,388,111.9,0.0,3.2,-1.8,1.09
438235,2100,388,111.9,0.0,3.2,-1.8,1.09
438235,2098,388,111.9,0.0,3.2,-1.8,1.09
438252,2158,388,111.9,0.0,3.2,-1.8,1.09
438252,2180,388,111.9,0.0,3.2,-1.8,1.09
438252,2158,388,111.9,0.0,3.2,-1.8,1.09
438252,2149,388,111.9,0.0,3.2,-1.8,1.09
438266,1981,388,111.9,0.0,3.2,-1.8,1.08
438266,1982,388,111.9,0.0,3.2,-1.8,1.08
438267,1976,388,111.9,0.0,3.2,-1.8,1.08
438286,2031,388,111.9,0.0,3.2,-1.8,1.08
438286,2018,388,111.9,0.0,3.2,-1.8,1.08
438287,2018,388,111.9,0.0,3.2,-1.8,1.08
438288,2128,388,111.9,0.0,3.2,-1.8,1.08
438300,2035,388,111.9,0.0,3.2,-1.8,1.08
438301,2008,388,111.9,0.0,3.2,-1.8,1.08
438301,1990,388,111.9,0.0,3.2,-1.8,1.08
438318,2029,388,111.9,0.0,3.2,-1.8,1.08
438319,2033,388,111.9,0.0,3.2,-1.8,1.08
438319,2037,388,111.9,0.0,3.2,-1.8,1.08
438319,2045,388,111.9,0.0,3.2,-1.8,1.08
438332,2055,388,111.9,0.0,3.2,-1.8,1.08
438332,2078,388,111.9,0.0,3.2,-1.8,1.08
438332,2078,388,111.9,0.0,3.2,-1.8,1.08
438351,1958,388,111.9,0.0,3.2,-1.8,1.08
438354,1917,388,111.9,0.0,3.2,-1.8,1.08
438355,1901,388,111.9,0.0,3.2,-1.8,1.08
438355,1893,388,111.9,0.0,3.2,-1.8,1.08
438368,2091,388,111.9,0.0,3.2,-1.8,1.08
438368,2168,388,111.9,0.0,3.2,-1.8,1.08
438369,2224,388,111.9,0.0,3.2,-1.8,1.08
438369,2225,388,111.9,0.0,3.2,-1.8,1.08
438389,1998,387,111.9,0.0,3.1,-1.7,1.08
438390,1995,387,111.9,0.0,3.1,-1.7,1.08
438391,1981,387,111.9,0.0,3.1,-1.7,1.08
438391,1971,387,111.9,0.0,3.1,-1.7,1.08
438404,2045,387,111.9,0.0,3.1,-1.7,1.08
438405,2033,387,111.9,0.0,3.1,-1.7,1.08
438405,2061,387,111.9,0.0,3.1,-1.7,1.08
438405,2041,387,111.9,0.0,3.1,-1.7,1.08
438421,1999,387,111.9,0.0,3.1,-1.7,1.08
438421,2005,387,111.9,0.0,3.1,-1.7,1.08
438421,2007,387,111.9,0.0,3.1,-1.7,1.08
438422,2014,387,111.9,0.0,3.1,-1.7,1.08
438435,2218,387,111.9,0.0,3.0,-1.8,1.07
438435,2186,387,111.9,0.0,3.0,-1.8,1.07
438435,2218,387,111.9,0.0,3.0,-1.8,1.07
438454,2069,387,111.9,0.0,3.0,-1.8,1.07
438455,2065,387,111.9,0.0,3.0,-1.8,1.07
438455,2086,387,111.9,0.0,3.0,-1.8,1.07
438455,2044,387,111.9,0.0,3.0,-1.8,1.07
438468,2033,387,111.9,0.0,3.0,-1.8,1.07
438468,2119,387,111.9,0.0,3.0,-1.8,1.07
438468,2155,387,111.9,0.0,3.0,-1.8,1.07
438488,2048,387,111.9,0.0,3.2,-1.8,1.07
438488,2086,387,111.9,0.0,3.2,-1.8,1.07
438488,2117,387,111.9,0.0,3.2,-1.8,1.07
438490,2161,387,111.9,0.0,3.2,-1.8,1.07
438504,2018,387,111.9,0.0,3.2,-1.8,1.07
438504,1993,387,111.9,0.0,3.2,-1.8,1.07
438504,1982,387,111.9,0.0,3.2,-1.8,1.07
438505,1981,387,111.9,0.0,3.2,-1.8,1.07
438521,2026,387,111.9,0.0,3.2,-1.8,1.07
438521,2034,387,111.9,0.0,3.2,-1.8,1.07
438521,2035,387,111.9,0.0,3.2,-1.8,1.07
438521,2035,387,111.9,0.0,3.2,-1.8,1.07
438535,2274,386,111.9,0.0,3.1,-1.7,1.08
438535,2268,386,111.9,0.0,3.1,-1.7,1.08
438535,2277,386,111.9,0.0,3.1,-1.7,1.08
438554,2011,386,111.9,0.0,3.1,-1.7,1.08
438555,2009,386,111.9,0.0,3.1,-1.7,1.08
438555,2001,386,111.9,0.0,3.1,-1.7,1.08
438555,2004,386,111.9,0.0,3.1,-1.7,1.08
438568,2055,386,111.9,0.0,3.1,-1.7,1.08
438568,2093,386,111.9,0.0,3.1,-1.7,1.08
438568,2116,386,111.9,0.0,3.1,-1.7,1.08
438587,1992,386,111.9,0.0,3.1,-1.7,1.08
438588,1972,386,111.9,0.0,3.1,-1.7,1.08
438591,1230,386,111.9,0.0,3.1,-1.7,1.08
438592,1201,386,111.9,0.0,3.1,-1.7,1.08
438592,1126,386,111.9,0.0,3.1,-1.7,1.08
438605,2312,386,111.9,0.0,3.1,-1.7,1.07
438606,2351,386,111.9,0.0,3.1,-1.7,1.07
438606,2431,386,111.9,0.0,3.1,-1.7,1.07
438623,1895,386,111.9,0.0,3.1,-1.7,1.07
438624,1867,386,111.9,0.0,3.1,-1.7,1.07
438624,1777,386,111.9,0.0,3.1,-1.7,1.07
438624,1719,386,111.9,0.0,3.1,-1.7,1.07
438637,2063,386,111.9,0.0,3.1,-1.7,1.07
438637,2136,386,111.9,0.0,3.1,-1.7,1.07
438637,2106,386,111.9,0.0,3.1,-1.7,1.07
438655,2098,386,111.9,0.0,3.1,-1.7,1.08
438656,2050,386,111.9,0.0,3.1,-1.7,1.08
438656,2114,386,111.9,0.0,3.1,-1.7,1.08
438656,2145,386,111.9,0.0,3.1,-1.7,1.08
438668,2128,386,111.9,0.0,3.1,-1.7,1.08
438669,2112,386,111.9,0.0,3.1,-1.7,1.08
438669,2099,386,111.9,0.0,3.1,-1.7,1.08
438688,2101,385,111.9,0.0,3.1,-1.7,1.08
438691,2307,385,111.9,0.0,3.1,-1.7,1.08
438691,2312,385,111.9,0.0,3.1,-1.7,1.08
438691,2244,385,111.9,0.0,3.1,-1.7,1.08
438704,1919,385,111.9,0.0,3.0,-1.6,1.07
438705,1967,385,111.9,0.0,3.0,-1.6,1.07
438705,2030,385,111.9,0.0,3.0,-1.6,1.07
438705,1972,385,111.9,0.0,3.0,-1.6,1.07
438722,1998,385,111.9,0.0,3.0,-1.6,1.07
438722,1986,385,111.9,0.0,3.0,-1.6,1.07
438723,2032,385,111.9,0.0,3.0,-1.6,1.07
438723,2056,385,111.9,0.0,3.0,-1.6,1.07
438736,1817,385,111.9,0.0,3.0,-1.6,1.07
438736,1777,385,111.9,0.0,3.0,-1.6,1.07
438736,1767,385,111.9,0.0,3.0,-1.6,1.07
438754,2275,385,111.9,0.0,3.0,-1.7,1.07
438755,2302,385,111.9,0.0,3.0,-1.7,1.07
438755,2293,385,111.9,0.0,3.0,-1.7,1.07
438755,2240,385,111.9,0.0,3.0,-1.7,1.07
438768,1941,385,111.9,0.0,3.0,-1.7,1.07
438768,1961,385,111.9,0.0,3.0,-1.7,1.07
438768,1999,385,111.9,0.0,3.0,-1.7,1.07
438787,2046,385,111.9,0.0,3.0,-1.7,1.07
438788,2094,385,111.9,0.0,3.0,-1.7,1.07
438788,2126,385,111.9,0.0,3.0,-1.7,1.07
438788,2159,385,111.9,0.0,3.0,-1.7,1.07
438802,2018,385,111.9,0.0,3.0,-1.8,1.08
438802,2009,385,111.9,0.0,3.0,-1.8,1.08
438802,1971,385,111.9,0.0,3.0,-1.8,1.08
438820,1989,384,111.9,0.0,3.0,-1.8,1.08
438820,2010,384,111.9,0.0,3.0,-1.8,1.08
438821,2033,384,111.9,0.0,3.0,-1.8,1.08
438821,2033,384,111.9,0.0,3.0,-1.8,1.08
438834,2190,384,111.9,0.0,3.0,-1.8,1.08
438835,2156,384,111.9,0.0,3.0,-1.8,1.08
438835,2183,384,111.9,0.0,3.0,-1.8,1.08
438855,1896,384,111.9,0.0,3.0,-1.7,1.07
438857,1918,384,111.9,0.0,3.0,-1.7,1.07
438857,1889,384,111.9,0.0,3.0,-1.7,1.07
438857,1877,384,111.9,0.0,3.0,-1.7,1.07
438870,2324,384,111.9,0.0,3.0,-1.7,1.07
438870,2375,384,111.9,0.0,3.0,-1.7,1.07
438870,2389,384,111.9,0.0,3.0,-1.7,1.07
438887,1890,384,111.9,0.0,3.0,-1.7,1.07
438887,1898,384,111.9,0.0,3.0,-1.7,1.07
438888,1899,384,111.9,0.0,3.0,-1.7,1.07
438888,1894,384,111.9,0.0,3.0,-1.7,1.07
438902,1747,384,111.9,0.0,3.1,-1.6,1.09
438902,1894,384,111.9,0.0,3.1,-1.6,1.09
438902,1919,384,111.9,0.0,3.1,-1.6,1.09
438920,1794,384,111.9,0.0,3.1,-1.6,1.09
438920,1768,384,111.9,0.0,3.1,-1.6,1.09
438920,1764,384,111.9,0.0,3.1,-1.6,1.09
438920,1713,384,111.9,0.0,3.1,-1.6,1.09
438934,2240,383,111.9,0.0,3.1,-1.6,1.09
438934,2249,383,111.9,0.0,3.1,-1.6,1.09
438935,2286,383,111.9,0.0,3.1,-1.6,1.09
438954,2077,383,111.9,0.0,3.1,-1.6,1.09
438954,2072,383,111.9,0.0,3.1,-1.6,1.09
438954,2022,383,111.9,0.0,3.1,-1.6,1.09
438954,1999,383,111.9,0.0,3.1,-1.6,1.09
438967,2008,383,111.9,0.0,2.9,-1.6,1.08
438967,2071,383,111.9,0.0,2.9,-1.6,1.08
438968,2163,383,111.9,0.0,2.9,-1.6,1.08
438986,1985,383,111.9,0.0,2.9,-1.6,1.08
438987,1989,383,111.9,0.0,2.9,-1.6,1.08
438987,2030,383,111.9,0.0,2.9,-1.6,1.08
438987,2064,383,111.9,0.0,2.9,-1.6,1.08
439000,1847,383,111.9,0.0,2.9,-1.6,1.08
439000,1841,383,111.9,0.0,2.9,-1.6,1.08
439000,1855,383,111.9,0.0,2.9,-1.6,1.08
439019,1891,382,111.9,0.0,2.8,-1.6,1.08
439020,1930,382,111.9,0.0,2.8,-1.6,1.08
439020,1918,382,111.9,0.0,2.8,-1.6,1.08
439020,1905,382,111.9,0.0,2.8,-1.6,1.08
439034,2011,382,111.9,0.0,2.8,-1.6,1.08
439034,2027,382,111.9,0.0,2.8,-1.6,1.08
439034,2053,382,111.9,0.0,2.8,-1.6,1.08
439052,2038,381,111.9,0.0,2.8,-1.6,1.08
439053,2005,381,111.9,0.0,2.8,-1.6,1.08
439053,1982,381,111.9,0.0,2.8,-1.6,1.08
439053,2010,381,111.9,0.0,2.8,-1.6,1.08
439066,2053,381,111.9,0.0,2.8,-1.6,1.06
439066,2048,381,111.9,0.0,2.8,-1.6,1.06
439066,2013,381,111.9,0.0,2.8,-1.6,1.06
439085,2013,381,111.9,0.0,2.8,-1.6,1.06
439086,2025,381,111.9,0.0,2.8,-1.6,1.06
439086,2053,381,111.9,0.0,2.8,-1.6,1.06
439086,2061,381,111.9,0.0,2.8,-1.6,1.06
439099,2030,380,111.9,0.0,2.8,-1.6,1.06
439099,2033,380,111.9,0.0,2.8,-1.6,1.06
439099,2057,380,111.9,0.0,2.8,-1.6,1.06
439119,2144,380,111.9,0.0,2.9,-1.6,1.07
439122,2038,380,111.9,0.0,2.9,-1.6,1.07
439123,2006,380,111.9,0.0,2.9,-1.6,1.07
439123,1981,380,111.9,0.0,2.9,-1.6,1.07
439135,1964,380,111.9,0.0,2.9,-1.6,1.07
439136,1989,380,111.9,0.0,2.9,-1.6,1.07
439136,1993,380,111.9,0.0,2.9,-1.6,1.07
439136,1973,380,111.9,0.0,2.9,-1.6,1.07
439153,1935,379,111.9,0.0,2.9,-1.6,1.07
439153,1932,379,111.9,0.0,2.9,-1.6,1.07
439153,1961,379,111.9,0.0,2.9,-1.6,1.07
439154,1942,379,111.9,0.0,2.9,-1.6,1.07
439166,2009,379,111.9,0.0,3.1,-1.7,1.08
439167,2040,379,111.9,0.0,3.1,-1.7,1.08
439167,1987,379,111.9,0.0,3.1,-1.7,1.08
439186,1955,378,111.9,0.0,3.1,-1.7,1.08
439186,1962,378,111.9,0.0,3.1,-1.7,1.08
439188,1959,378,111.9,0.0,3.1,-1.7,1.08
439188,1981,378,111.9,0.0,3.1,-1.7,1.08
439202,2038,378,111.9,0.0,3.1,-1.7,1.08
439202,2058,378,111.9,0.0,3.1,-1.7,1.08
439202,2061,378,111.9,0.0,3.1,-1.7,1.08
439203,2038,378,111.9,0.0,3.1,-1.7,1.08
439220,1983,378,111.9,0.0,3.2,-1.8,1.08
439221,1973,378,111.9,0.0,3.2,-1.8,1.08
439221,2025,378,111.9,0.0,3.2,-1.8,1.08
439221,2034,378,111.9,0.0,3.2,-1.8,1.08
439234,2024,377,111.9,0.0,3.2,-1.8,1.08
439234,2019,377,111.9,0.0,3.2,-1.8,1.08
439234,2028,377,111.9,0.0,3.2,-1.8,1.08
439253,2163,377,111.9,0.0,3.2,-1.8,1.08
439254,2147,377,111.9,0.0,3.2,-1.8,1.08
439254,2123,377,111.9,0.0,3.2,-1.8,1.08
439254,2120,377,111.9,0.0,3.2,-1.8,1.08
439267,1966,377,111.9,0.0,3.1,-1.7,1.07
439267,2009,377,111.9,0.0,3.1,-1.7,1.07
439267,1993,377,111.9,0.0,3.1,-1.7,1.07
439288,1915,376,111.9,0.0,3.1,-1.7,1.07
439290,1984,376,111.9,0.0,3.1,-1.7,1.07
439291,1998,376,111.9,0.0,3.1,-1.7,1.07
439291,2008,376,111.9,0.0,3.1,-1.7,1.07
439303,2048,376,111.9,0.0,3.1,-1.7,1.07
439304,2025,376,111.9,0.0,3.1,-1.7,1.07
439304,2021,376,111.9,0.0,3.1,-1.7,1.07
439304,2034,376,111.9,0.0,3.1,-1.7,1.07
439322,2025,376,111.9,0.0,3.0,-1.6,1.07
439322,2017,376,111.9,0.0,3.0,-1.6,1.07
439323,2003,376,111.9,0.0,3.0,-1.6,1.07
439323,1988,376,111.9,0.0,3.0,-1.6,1.07
439335,2014,376,111.9,0.0,3.0,-1.6,1.07
439336,1996,376,111.9,0.0,3.0,-1.6,1.07
439336,1991,376,111.9,0.0,3.0,-1.6,1.07
439354,2199,375,111.9,0.0,3.0,-1.6,1.07
439355,2143,375,111.9,0.0,3.0,-1.6,1.07
439355,2193,375,111.9,0.0,3.0,-1.6,1.07
439355,2197,375,111.9,0.0,3.0,-1.6,1.07
439368,1987,375,111.9,0.0,2.9,-1.6,1.07
439368,1977,375,111.9,0.0,2.9,-1.6,1.07
439368,1968,375,111.9,0.0,2.9,-1.6,1.07
439388,2038,375,111.9,0.0,2.9,-1.6,1.07
439391,2184,375,111.9,0.0,2.9,-1.6,1.07
439391,2182,375,111.9,0.0,2.9,-1.6,1.07
439391,2182,375,111.9,0.0,2.9,-1.6,1.07
439404,1984,375,111.9,0.0,2.9,-1.6,1.07
439405,1988,375,111.9,0.0,2.9,-1.6,1.07
439405,1982,375,111.9,0.0,2.9,-1.6,1.07
439405,1978,375,111.9,0.0,2.9,-1.6,1.07
439423,2011,375,111.9,0.0,3.1,-1.6,1.09
439423,1977,375,111.9,0.0,3.1,-1.6,1.09
439423,2016,375,111.9,0.0,3.1,-1.6,1.09
439423,2008,375,111.9,0.0,3.1,-1.6,1.09
439436,2028,375,111.9,0.0,3.1,-1.6,1.09
439436,2020,375,111.9,0.0,3.1,-1.6,1.09
439437,2026,375,111.9,0.0,3.1,-1.6,1.09
439455,2032,375,111.9,0.0,3.1,-1.6,1.09
439456,2019,375,111.9,0.0,3.1,-1.6,1.09
439459,1999,375,111.9,0.0,3.1,-1.6,1.09
439460,1984,375,111.9,0.0,3.1,-1.6,1.09
439473,2024,375,111.9,0.0,3.2,-1.6,1.08
439474,2026,375,111.9,0.0,3.2,-1.6,1.08
439474,2002,375,111.9,0.0,3.2,-1.6,1.08
439475,1995,375,111.9,0.0,3.2,-1.6,1.08
439493,2158,375,111.9,0.0,3.2,-1.6,1.08
439493,2152,375,111.9,0.0,3.2,-1.6,1.08
439493,2155,375,111.9,0.0,3.2,-1.6,1.08
439494,2160,375,111.9,0.0,3.2,-1.6,1.08
439506,1989,375,111.9,0.0,3.2,-1.6,1.08
439507,1991,375,111.9,0.0,3.2,-1.6,1.08
439507,1975,375,111.9,0.0,3.2,-1.6,1.08
439525,2037,376,111.9,0.0,3.2,-1.7,1.08
439525,2049,376,111.9,0.0,3.2,-1.7,1.08
439525,2055,376,111.9,0.0,3.2,-1.7,1.08
439525,2046,376,111.9,0.0,3.2,-1.7,1.08
439538,2005,376,111.9,0.0,3.2,-1.7,1.08
439538,1999,376,111.9,0.0,3.2,-1.7,1.08
439539,2005,376,111.9,0.0,3.2,-1.7,1.08
439557,2253,376,111.9,0.0,3.2,-1.7,1.08
439558,2220,376,111.9,0.0,3.2,-1.7,1.08
439558,2214,376,111.9,0.0,3.2,-1.7,1.08
439558,2211,376,111.9,0.0,3.2,-1.7,1.08
439572,2096,376,111.9,0.0,3.2,-1.7,1.08
439572,2097,376,111.9,0.0,3.2,-1.7,1.08
439572,2084,376,111.9,0.0,3.2,-1.7,1.08
439591,2167,376,111.9,0.0,3.2,-1.7,1.08
439591,2182,376,111.9,0.0,3.2,-1.7,1.08
439591,2195,376,111.9,0.0,3.2,-1.7,1.08
439591,2169,376,111.9,0.0,3.2,-1.7,1.08
439604,1978,376,111.9,0.0,3.2,-1.7,1.08
439605,1934,376,111.9,0.0,3.2,-1.7,1.08
439605,1946,376,111.9,0.0,3.2,-1.7,1.08
439624,2014,376,111.9,0.0,3.1,-1.6,1.08
439624,1999,376,111.9,0.0,3.1,-1.6,1.08
439624,2012,376,111.9,0.0,3.1,-1.6,1.08
439624,2002,376,111.9,0.0,3.1,-1.6,1.08
439637,2302,376,111.9,0.0,3.1,-1.6,1.08
439637,2247,376,111.9,0.0,3.1,-1.6,1.08
439637,2252,376,111.9,0.0,3.1,-1.6,1.08
439656,2070,376,111.9,0.0,3.1,-1.6,1.08
439657,2073,376,111.9,0.0,3.1,-1.6,1.08
439657,2055,376,111.9,0.0,3.1,-1.6,1.08
439657,2050,376,111.9,0.0,3.1,-1.6,1.08
439670,2074,377,111.9,0.0,3.1,-1.6,1.07
439671,2073,377,111.9,0.0,3.1,-1.6,1.07
439671,2065,377,111.9,0.0,3.1,-1.6,1.07
439689,2115,377,111.9,0.0,3.1,-1.6,1.07
439690,2146,377,111.9,0.0,3.1,-1.6,1.07
439690,2153,377,111.9,0.0,3.1,-1.6,1.07
439690,2195,377,111.9,0.0,3.1,-1.6,1.07
439703,2027,377,111.9,0.0,3.1,-1.6,1.07
439703,2001,377,111.9,0.0,3.1,-1.6,1.07
439704,1987,377,111.9,0.0,3.1,-1.6,1.07
439727,2889,377,111.9,0.0,3.1,-1.7,1.07
439730,3199,377,111.9,0.0,3.1,-1.7,1.07
439730,3259,377,111.9,0.0,3.1,-1.7,1.07
439731,3399,377,111.9,0.0,3.1,-1.7,1.07
439744,1588,377,111.9,0.0,3.1,-1.7,1.07
439744,1576,377,111.9,0.0,3.1,-1.7,1.07
439744,1521,377,111.9,0.0,3.1,-1.7,1.07
439745,1491,377,111.9,0.0,3.1,-1.7,1.07
439761,2147,377,111.9,0.0,3.1,-1.7,1.07
439762,2196,377,111.9,0.0,3.1,-1.7,1.07
439762,2200,377,111.9,0.0,3.1,-1.7,1.07
439762,2169,377,111.9,0.0,3.1,-1.7,1.07
439774,2052,377,111.9,0.0,3.1,-1.7,1.07
439775,2074,377,111.9,0.0,3.1,-1.7,1.07
439775,2080,377,111.9,0.0,3.1,-1.7,1.07
439794,2361,377,111.9,0.0,3.1,-1.7,1.07
439796,2280,377,111.9,0.0,3.1,-1.7,1.07
439796,2255,377,111.9,0.0,3.1,-1.7,1.07
439796,2268,377,111.9,0.0,3.1,-1.7,1.07
439810,2012,378,111.9,0.0,3.1,-1.7,1.07
439811,2055,378,111.9,0.0,3.1,-1.7,1.07
439811,2016,378,111.9,0.0,3.1,-1.7,1.07
439811,2002,378,111.9,0.0,3.1,-1.7,1.07
439829,1998,378,111.9,0.0,3.1,-1.6,1.07
439830,2049,378,111.9,0.0,3.1,-1.6,1.07
439830,2029,378,111.9,0.0,3.1,-1.6,1.07
439830,1990,378,111.9,0.0,3.1,-1.6,1.07
439843,1980,378,111.9,0.0,3.1,-1.6,1.07
439844,2020,378,111.9,0.0,3.1,-1.6,1.07
439844,2038,378,111.9,0.0,3.1,-1.6,1.07
439862,2053,378,111.9,0.0,3.1,-1.6,1.07
439862,1994,378,111.9,0.0,3.1,-1.6,1.07
439862,1970,378,111.9,0.0,3.1,-1.6,1.07
439862,1984,378,111.9,0.0,3.1,-1.6,1.07
439875,2218,378,111.9,0.0,3.1,-1.7,1.08
439875,2224,378,111.9,0.0,3.1,-1.7,1.08
439875,2198,378,111.9,0.0,3.1,-1.7,1.08
439894,2094,378,111.9,0.0,3.1,-1.7,1.08
439895,2132,378,111.9,0.0,3.1,-1.7,1.08
439895,2164,378,111.9,0.0,3.1,-1.7,1.08
439895,2159,378,111.9,0.0,3.1,-1.7,1.08
439909,1993,379,111.9,0.0,3.1,-1.7,1.08
439909,2024,379,111.9,0.0,3.1,-1.7,1.08
439909,2049,379,111.9,0.0,3.1,-1.7,1.08
439929,1991,379,111.9,0.0,3.0,-1.8,1.08
439930,1934,379,111.9,0.0,3.0,-1.8,1.08
439931,1800,379,111.9,0.0,3.0,-1.8,1.08
439931,1748,379,111.9,0.0,3.0,-1.8,1.08
439944,2060,379,111.9,0.0,3.0,-1.8,1.08
439944,2079,379,111.9,0.0,3.0,-1.8,1.08
439945,2116,379,111.9,0.0,3.0,-1.8,1.08
439962,2004,379,111.9,0.0,3.0,-1.8,1.08
439962,1980,379,111.9,0.0,3.0,-1.8,1.08
439962,1957,379,111.9,0.0,3.0,-1.8,1.08
439963,1971,379,111.9,0.0,3.0,-1.8,1.08
439975,2043,379,111.9,0.0,3.0,-1.8,1.07
439975,2054,379,111.9,0.0,3.0,-1.8,1.07
439976,2058,379,111.9,0.0,3.0,-1.8,1.07
439994,2065,379,111.9,0.0,3.0,-1.8,1.07
439995,2069,379,111.9,0.0,3.0,-1.8,1.07
439995,2064,379,111.9,0.0,3.0,-1.8,1.07
439995,2069,379,111.9,0.0,3.0,-1.8,1.07
440009,2013,380,111.9,0.0,3.0,-1.8,1.07
440009,2032,380,111.9,0.0,3.0,-1.8,1.07
440009,2163,380,111.9,0.0,3.0,-1.8,1.07
440029,2147,380,111.9,0.0,3.1,-1.8,1.07
440029,2235,380,111.9,0.0,3.1,-1.8,1.07
440031,2378,380,111.9,0.0,3.1,-1.8,1.07
440032,2407,380,111.9,0.0,3.1,-1.8,1.07
440044,1920,380,111.9,0.0,3.1,-1.8,1.07
440045,1917,380,111.9,0.0,3.1,-1.8,1.07
440045,1903,380,111.9,0.0,3.1,-1.8,1.07
440045,1876,380,111.9,0.0,3.1,-1.8,1.07
440062,2044,380,111.9,0.0,3.1,-1.8,1.07
440063,2052,380,111.9,0.0,3.1,-1.8,1.07
440063,2070,380,111.9,0.0,3.1,-1.8,1.07
440063,2107,380,111.9,0.0,3.1,-1.8,1.07
440076,2050,381,111.9,0.0,3.1,-1.8,1.07
440076,2052,381,111.9,0.0,3.1,-1.8,1.07
440076,2054,381,111.9,0.0,3.1,-1.8,1.07
440094,2074,381,111.9,0.0,3.1,-1.8,1.07
440095,2104,381,111.9,0.0,3.1,-1.8,1.07
440095,2070,381,111.9,0.0,3.1,-1.8,1.07
440095,2056,381,111.9,0.0,3.1,-1.8,1.07
440109,1918,381,111.9,0.0,3.1,-1.8,1.07
440109,2069,381,111.9,0.0,3.1,-1.8,1.07
440109,2059,381,111.9,0.0,3.1,-1.8,1.07
440128,2044,381,111.9,0.0,3.1,-1.7,1.07
440129,2086,381,111.9,0.0,3.1,-1.7,1.07
440129,2124,381,111.9,0.0,3.1,-1.7,1.07
440129,2143,381,111.9,0.0,3.1,-1.7,1.07
440142,2018,382,111.9,0.0,3.1,-1.7,1.07
440143,1990,382,111.9,0.0,3.1,-1.7,1.07
440143,1977,382,111.9,0.0,3.1,-1.7,1.07
440162,2060,382,111.9,0.0,3.1,-1.7,1.07
440163,2036,382,111.9,0.0,3.1,-1.7,1.07
440164,2029,382,111.9,0.0,3.1,-1.7,1.07
440166,1916,382,111.9,0.0,3.1,-1.7,1.07
440167,1909,382,111.9,0.0,3.1,-1.7,1.07
440179,2066,382,111.9,0.0,3.0,-1.7,1.07
440180,2071,382,111.9,0.0,3.0,-1.7,1.07
440180,2077,382,111.9,0.0,3.0,-1.7,1.07
440196,2155,382,111.9,0.0,3.0,-1.7,1.07
440196,2123,382,111.9,0.0,3.0,-1.7,1.07
440196,2133,382,111.9,0.0,3.0,-1.7,1.07
440196,2138,382,111.9,0.0,3.0,-1.7,1.07
440210,2102,383,111.9,0.0,3.0,-1.7,1.07
440210,2089,383,111.9,0.0,3.0,-1.7,1.07
440211,2090,383,111.9,0.0,3.0,-1.7,1.07
440228,1986,383,111.9,0.0,3.0,-1.7,1.07
440228,1961,383,111.9,0.0,3.0,-1.7,1.07
440229,1984,383,111.9,0.0,3.0,-1.7,1.07
440229,1988,383,111.9,0.0,3.0,-1.7,1.07
440241,1248,383,111.9,0.0,3.1,-1.7,1.08
440242,1404,383,111.9,0.0,3.1,-1.7,1.08
440242,1460,383,111.9,0.0,3.1,-1.7,1.08
440260,1783,383,111.9,0.0,3.1,-1.7,1.08
440261,1735,383,111.9,0.0,3.1,-1.7,1.08
440261,1725,383,111.9,0.0,3.1,-1.7,1.08
440261,1710,383,111.9,0.0,3.1,-1.7,1.08
440274,2208,384,111.9,0.0,3.1,-1.7,1.08
440274,2202,384,111.9,0.0,3.1,-1.7,1.08
440274,2229,384,111.9,0.0,3.1,-1.7,1.08
440293,2179,384,111.9,0.0,3.1,-1.7,1.08
440294,2190,384,111.9,0.0,3.1,-1.7,1.08
440294,2162,384,111.9,0.0,3.1,-1.7,1.08
440294,2134,384,111.9,0.0,3.1,-1.7,1.08
440308,1964,385,111.9,0.0,3.1,-1.7,1.08
440308,2008,385,111.9,0.0,3.1,-1.7,1.08
440308,1957,385,111.9,0.0,3.1,-1.7,1.08
440327,2002,385,111.9,0.0,3.1,-1.7,1.08
440327,1968,385,111.9,0.0,3.1,-1.7,1.08
440328,2008,385,111.9,0.0,3.1,-1.7,1.08
440328,2031,385,111.9,0.0,3.1,-1.7,1.08
440340,2067,386,111.9,0.0,3.1,-1.7,1.08
440341,2018,386,111.9,0.0,3.1,-1.7,1.08
440341,1989,386,111.9,0.0,3.1,-1.7,1.08
440360,1873,386,111.9,0.0,3.1,-1.7,1.08
440360,1914,386,111.9,0.0,3.1,-1.7,1.08
440362,1988,386,111.9,0.0,3.1,-1.7,1.08
440362,1949,386,111.9,0.0,3.1,-1.7,1.08
440375,2128,386,111.9,0.0,3.1,-1.7,1.08
440375,2160,386,111.9,0.0,3.1,-1.7,1.08
440375,2182,386,111.9,0.0,3.1,-1.7,1.08
440393,2157,387,111.9,0.0,3.1,-1.7,1.08
440394,2106,387,111.9,0.0,3.1,-1.7,1.08
440394,2080,387,111.9,0.0,3.1,-1.7,1.08
440394,2105,387,111.9,0.0,3.1,-1.7,1.08
440407,2023,387,111.9,0.0,3.1,-1.7,1.08
440408,2025,387,111.9,0.0,3.1,-1.7,1.08
440408,1987,387,111.9,0.0,3.1,-1.7,1.08
440426,1861,387,111.9,0.0,3.1,-1.7,1.08
440427,2013,387,111.9,0.0,3.1,-1.7,1.08
440427,2052,387,111.9,0.0,3.1,-1.7,1.08
440428,2059,387,111.9,0.0,3.1,-1.7,1.08
440440,2061,388,111.9,0.0,3.1,-1.7,1.08
440441,2014,388,111.9,0.0,3.1,-1.7,1.08
440441,2035,388,111.9,0.0,3.1,-1.7,1.08
440460,2069,388,111.9,0.0,3.1,-1.6,1.08
440460,2076,388,111.9,0.0,3.1,-1.6,1.08
440462,2028,388,111.9,0.0,3.1,-1.6,1.08
440463,1996,388,111.9,0.0,3.1,-1.6,1.08
440476,2168,388,111.9,0.0,3.1,-1.6,1.08
440476,2190,388,111.9,0.0,3.1,-1.6,1.08
440477,2195,388,111.9,0.0,3.1,-1.6,1.08
440477,2161,388,111.9,0.0,3.1,-1.6,1.08
440493,2101,388,111.9,0.0,3.1,-1.6,1.08
440494,2097,388,111.9,0.0,3.1,-1.6,1.08
440494,2133,388,111.9,0.0,3.1,-1.6,1.08
440494,2138,388,111.9,0.0,3.1,-1.6,1.08
440508,2010,388,111.9,0.0,3.1,-1.6,1.07
440508,1969,388,111.9,0.0,3.1,-1.6,1.07
440508,1968,388,111.9,0.0,3.1,-1.6,1.07
440526,2018,389,111.9,0.0,3.1,-1.6,1.07
440527,2048,389,111.9,0.0,3.1,-1.6,1.07
440527,2033,389,111.9,0.0,3.1,-1.6,1.07
440527,2016,389,111.9,0.0,3.1,-1.6,1.07
440540,2052,389,111.9,0.0,3.1,-1.6,1.07
440540,2057,389,111.9,0.0,3.1,-1.6,1.07
440540,2061,389,111.9,0.0,3.1,-1.6,1.07
440559,2039,389,111.9,0.0,3.1,-1.6,1.07
440560,2029,389,111.9,0.0,3.1,-1.6,1.07
440560,2032,389,111.9,0.0,3.1,-1.6,1.07
440560,2018,389,111.9,0.0,3.1,-1.6,1.07
440573,2072,389,111.9,0.0,3.1,-1.7,1.07
440573,2050,389,111.9,0.0,3.1,-1.7,1.07
440574,2035,389,111.9,0.0,3.1,-1.7,1.07
440593,2208,389,111.9,0.0,3.1,-1.7,1.07
440594,2202,389,111.9,0.0,3.1,-1.7,1.07
440596,2158,389,111.9,0.0,3.1,-1.7,1.07
440597,2137,389,111.9,0.0,3.1,-1.7,1.07
440610,2100,388,111.9,0.0,3.1,-1.7,1.07
440611,2177,388,111.9,0.0,3.1,-1.7,1.07
440611,2191,388,111.9,0.0,3.1,-1.7,1.07
440611,2246,388,111.9,0.0,3.1,-1.7,1.07
440628,1899,388,111.9,0.0,3.1,-1.7,1.07
440628,1871,388,111.9,0.0,3.1,-1.7,1.07
440629,1860,388,111.9,0.0,3.1,-1.7,1.07
440629,1886,388,111.9,0.0,3.1,-1.7,1.07
440642,2052,388,111.9,0.0,3.1,-1.7,1.07
440642,2079,388,111.9,0.0,3.1,-1.7,1.07
440642,2065,388,111.9,0.0,3.1,-1.7,1.07
440659,2144,388,111.9,0.0,3.1,-1.7,1.07
440660,2107,388,111.9,0.0,3.1,-1.7,1.07
440660,2121,388,111.9,0.0,3.1,-1.7,1.07
440660,2112,388,111.9,0.0,3.1,-1.7,1.07
440673,1998,388,111.9,0.0,3.1,-1.8,1.07
440673,1984,388,111.9,0.0,3.1,-1.8,1.07
440673,1975,388,111.9,0.0,3.1,-1.8,1.07
440691,2162,388,111.9,0.0,3.1,-1.8,1.07
440692,2184,388,111.9,0.0,3.1,-1.8,1.07
440692,2196,388,111.9,0.0,3.1,-1.8,1.07
440692,2194,388,111.9,0.0,3.1,-1.8,1.07
440706,1976,388,111.9,0.0,3.1,-1.8,1.07
440706,1970,388,111.9,0.0,3.1,-1.8,1.07
440706,1968,388,111.9,0.0,3.1,-1.8,1.07
440725,1995,388,111.9,0.0,3.1,-1.7,1.07
440726,1998,388,111.9,0.0,3.1,-1.7,1.07
440726,1990,388,111.9,0.0,3.1,-1.7,1.07
440726,1993,388,111.9,0.0,3.1,-1.7,1.07
440739,2048,388,111.9,0.0,3.1,-1.7,1.07
440739,2042,388,111.9,0.0,3.1,-1.7,1.07
440740,2042,388,111.9,0.0,3.1,-1.7,1.07
440764,2011,387,111.9,0.0,3.1,-1.7,1.07
440767,2029,387,111.9,0.0,3.1,-1.7,1.07
440767,2027,387,111.9,0.0,3.1,-1.7,1.07
440768,2025,387,111.9,0.0,3.1,-1.7,1.07
440780,1967,387,111.9,0.0,3.0,-1.7,1.08
440780,1977,387,111.9,0.0,3.0,-1.7,1.08
440781,1981,387,111.9,0.0,3.0,-1.7,1.08
440781,1975,387,111.9,0.0,3.0,-1.7,1.08
440797,2029,387,111.9,0.0,3.0,-1.7,1.08
440798,2028,387,111.9,0.0,3.0,-1.7,1.08
440798,2064,387,111.9,0.0,3.0,-1.7,1.08
440798,2029,387,111.9,0.0,3.0,-1.7,1.08
440811,2086,387,111.9,0.0,3.0,-1.7,1.08
440811,2092,387,111.9,0.0,3.0,-1.7,1.08
440811,2086,387,111.9,0.0,3.0,-1.7,1.08
440830,2080,387,111.9,0.0,3.0,-1.7,1.07
440831,2111,387,111.9,0.0,3.0,-1.7,1.07
440834,2078,387,111.9,0.0,3.0,-1.7,1.07
440835,2081,387,111.9,0.0,3.0,-1.7,1.07
440847,1990,387,111.9,0.0,3.0,-1.7,1.07
440848,1998,387,111.9,0.0,3.0,-1.7,1.07
440848,1989,387,111.9,0.0,3.0,-1.7,1.07
440848,1988,387,111.9,0.0,3.0,-1.7,1.07
440869,2037,387,111.9,0.0,3.0,-1.7,1.07
440871,2103,387,111.9,0.0,3.0,-1.7,1.07
440871,2113,387,111.9,0.0,3.0,-1.7,1.07
440872,2122,387,111.9,0.0,3.0,-1.7,1.07
440885,1995,387,111.9,0.0,3.1,-1.6,1.07
440885,2001,387,111.9,0.0,3.1,-1.6,1.07
440886,2010,387,111.9,0.0,3.1,-1.6,1.07
440886,1994,387,111.9,0.0,3.1,-1.6,1.07
440901,2049,386,111.9,0.0,3.1,-1.6,1.07
440902,2038,386,111.9,0.0,3.1,-1.6,1.07
440902,2030,386,111.9,0.0,3.1,-1.6,1.07
440902,2033,386,111.9,0.0,3.1,-1.6,1.07
440916,1773,386,111.9,0.0,3.1,-1.6,1.07
440916,1775,386,111.9,0.0,3.1,-1.6,1.07
440916,1774,386,111.9,0.0,3.1,-1.6,1.07
440935,2168,386,111.9,0.0,3.1,-1.7,1.08
440936,2144,386,111.9,0.0,3.1,-1.7,1.08
440936,2097,386,111.9,0.0,3.1,-1.7,1.08
440938,2109,386,111.9,0.0,3.1,-1.7,1.08
440951,2055,386,111.9,0.0,3.1,-1.7,1.08
440951,1997,386,111.9,0.0,3.1,-1.7,1.08
440951,1994,386,111.9,0.0,3.1,-1.7,1.08
440952,1996,386,111.9,0.0,3.1,-1.7,1.08
440973,1967,386,111.9,0.0,3.1,-1.7,1.08
440976,1873,386,111.9,0.0,3.1,-1.7,1.08
440976,1850,386,111.9,0.0,3.1,-1.7,1.08
440976,1840,386,111.9,0.0,3.1,-1.7,1.08
440989,2061,386,111.9,0.0,3.1,-1.6,1.08
440989,2089,386,111.9,0.0,3.1,-1.6,1.08
440989,2095,386,111.9,0.0,3.1,-1.6,1.08
440989,2088,386,111.9,0.0,3.1,-1.6,1.08
441006,1958,386,111.9,0.0,3.1,-1.6,1.08
441006,1970,386,111.9,0.0,3.1,-1.6,1.08
441007,1971,386,111.9,0.0,3.1,-1.6,1.08
441007,1966,386,111.9,0.0,3.1,-1.6,1.08
441019,2080,386,111.9,0.0,3.1,-1.6,1.08
441020,2086,386,111.9,0.0,3.1,-1.6,1.08
441020,2101,386,111.9,0.0,3.1,-1.6,1.08
441038,1914,386,111.9,0.0,3.0,-1.6,1.08
441039,1898,386,111.9,0.0,3.0,-1.6,1.08
441039,1897,386,111.9,0.0,3.0,-1.6,1.08
441039,1890,386,111.9,0.0,3.0,-1.6,1.08
441052,2163,386,111.9,0.0,3.0,-1.6,1.08
441053,2160,386,111.9,0.0,3.0,-1.6,1.08
441054,2156,386,111.9,0.0,3.0,-1.6,1.08
441073,1950,385,111.9,0.0,3.0,-1.6,1.08
441073,1929,385,111.9,0.0,3.0,-1.6,1.08
441073,1905,385,111.9,0.0,3.0,-1.6,1.08
441073,1914,385,111.9,0.0,3.0,-1.6,1.08
441087,2063,385,111.9,0.0,3.0,-1.6,1.08
441087,2061,385,111.9,0.0,3.0,-1.6,1.08
441088,2051,385,111.9,0.0,3.0,-1.6,1.08
441106,1999,385,111.9,0.0,3.0,-1.6,1.08
441106,1987,385,111.9,0.0,3.0,-1.6,1.08
441106,2002,385,111.9,0.0,3.0,-1.6,1.08
441106,1997,385,111.9,0.0,3.0,-1.6,1.08
441119,2083,385,111.9,0.0,3.0,-1.6,1.08
441119,2073,385,111.9,0.0,3.0,-1.6,1.08
441120,2095,385,111.9,0.0,3.0,-1.6,1.08
441138,2015,385,111.9,0.0,3.0,-1.6,1.08
441139,2026,385,111.9,0.0,3.0,-1.6,1.08
441139,2007,385,111.9,0.0,3.0,-1.6,1.08
441139,2009,385,111.9,0.0,3.0,-1.6,1.08
441152,2141,385,111.9,0.0,3.1,-1.7,1.08
441152,2142,385,111.9,0.0,3.1,-1.7,1.08
441152,2141,385,111.9,0.0,3.1,-1.7,1.08
441171,2056,385,111.9,0.0,3.1,-1.7,1.08
441172,2021,385,111.9,0.0,3.1,-1.7,1.08
441172,2050,385,111.9,0.0,3.1,-1.7,1.08
441172,2034,385,111.9,0.0,3.1,-1.7,1.08
441186,1980,385,111.9,0.0,3.1,-1.7,1.08
441186,2028,385,111.9,0.0,3.1,-1.7,1.08
441187,2029,385,111.9,0.0,3.1,-1.7,1.08
441204,1972,384,111.9,0.0,3.2,-1.8,1.07
441205,1986,384,111.9,0.0,3.2,-1.8,1.07
441205,1978,384,111.9,0.0,3.2,-1.8,1.07
441205,1992,384,111.9,0.0,3.2,-1.8,1.07
441218,1087,384,111.9,0.0,3.2,-1.8,1.07
441218,1132,384,111.9,0.0,3.2,-1.8,1.07
441219,1166,384,111.9,0.0,3.2,-1.8,1.07
441237,2127,384,111.9,0.0,3.2,-1.8,1.07
441238,2086,384,111.9,0.0,3.2,-1.8,1.07
441238,2159,384,111.9,0.0,3.2,-1.8,1.07
441238,2181,384,111.9,0.0,3.2,-1.8,1.07
441251,2015,384,111.9,0.0,3.1,-1.7,1.07
441251,1925,384,111.9,0.0,3.1,-1.7,1.07
441251,1925,384,111.9,0.0,3.1,-1.7,1.07
441271,2185,384,111.9,0.0,3.1,-1.7,1.07
441271,2201,384,111.9,0.0,3.1,-1.7,1.07
441271,2174,384,111.9,0.0,3.1,-1.7,1.07
441274,2039,383,111.9,0.0,3.1,-1.7,1.07
441287,1972,383,111.9,0.0,3.1,-1.7,1.07
441287,2015,383,111.9,0.0,3.1,-1.7,1.07
441288,2046,383,111.9,0.0,3.1,-1.7,1.07
441289,2030,383,111.9,0.0,3.1,-1.7,1.07
441307,1904,383,111.9,0.0,3.0,-1.7,1.08
441307,1899,383,111.9,0.0,3.0,-1.7,1.08
441307,1934,383,111.9,0.0,3.0,-1.7,1.08
441308,1953,383,111.9,0.0,3.0,-1.7,1.08
441320,1972,383,111.9,0.0,3.0,-1.7,1.08
441321,1951,383,111.9,0.0,3.0,-1.7,1.08
441321,1948,383,111.9,0.0,3.0,-1.7,1.08
441339,2296,383,111.9,0.0,3.0,-1.7,1.08
441340,2289,383,111.9,0.0,3.0,-1.7,1.08
441340,2286,383,111.9,0.0,3.0,-1.7,1.08
441340,2224,383,111.9,0.0,3.0,-1.7,1.08
441354,1931,382,111.9,0.0,3.1,-1.7,1.08
441354,1940,382,111.9,0.0,3.1,-1.7,1.08
441354,1968,382,111.9,0.0,3.1,-1.7,1.08
441372,1357,382,111.9,0.0,3.1,-1.7,1.08
441372,1171,382,111.9,0.0,3.1,-1.7,1.08
441372,1090,382,111.9,0.0,3.1,-1.7,1.08
441372,1022,382,111.9,0.0,3.1,-1.7,1.08
441386,2351,382,111.9,0.0,3.1,-1.7,1.08
441386,2428,382,111.9,0.0,3.1,-1.7,1.08
441386,2486,382,111.9,0.0,3.1,-1.7,1.08
441407,1705,381,111.9,0.0,3.1,-1.8,1.08
441408,1761,381,111.9,0.0,3.1,-1.8,1.08
441409,1727,381,111.9,0.0,3.1,-1.8,1.08
441409,1724,381,111.9,0.0,3.1,-1.8,1.08
441423,2074,381,111.9,0.0,3.1,-1.8,1.08
441424,2129,381,111.9,0.0,3.1,-1.8,1.08
441424,2125,381,111.9,0.0,3.1,-1.8,1.08
441425,2072,381,111.9,0.0,3.1,-1.8,1.08
441441,1892,381,111.9,0.0,3.1,-1.8,1.08
441442,1944,381,111.9,0.0,3.1,-1.8,1.08
441442,1987,381,111.9,0.0,3.1,-1.8,1.08
441442,2004,381,111.9,0.0,3.1,-1.8,1.08
441456,2063,380,111.9,0.0,3.1,-1.8,1.07
441456,2017,380,111.9,0.0,3.1,-1.8,1.07
441456,2043,380,111.9,0.0,3.1,-1.8,1.07
441474,2130,380,111.9,0.0,3.1,-1.8,1.07
441475,2128,380,111.9,0.0,3.1,-1.8,1.07
441475,2081,380,111.9,0.0,3.1,-1.8,1.07
441475,2043,380,111.9,0.0,3.1,-1.8,1.07
441488,1990,379,111.9,0.0,3.1,-1.8,1.07
441488,2050,379,111.9,0.0,3.1,-1.8,1.07
441488,2034,379,111.9,0.0,3.1,-1.8,1.07
441507,2040,379,111.9,0.0,3.2,-1.8,1.07
441508,2014,379,111.9,0.0,3.2,-1.8,1.07
441508,2038,379,111.9,0.0,3.2,-1.8,1.07
441508,2108,379,111.9,0.0,3.2,-1.8,1.07
441521,2067,379,111.9,0.0,3.2,-1.8,1.07
441521,2010,379,111.9,0.0,3.2,-1.8,1.07
441522,1983,379,111.9,0.0,3.2,-1.8,1.07
441547,2039,378,111.9,0.0,3.2,-1.8,1.07
441549,2090,378,111.9,0.0,3.2,-1.8,1.07
441549,2186,378,111.9,0.0,3.2,-1.8,1.07
441549,2051,378,111.9,0.0,3.2,-1.8,1.07
441563,1641,378,111.9,0.0,3.1,-1.7,1.07
441564,1785,378,111.9,0.0,3.1,-1.7,1.07
441564,1818,378,111.9,0.0,3.1,-1.7,1.07
441564,1881,378,111.9,0.0,3.1,-1.7,1.07
441580,2105,378,111.9,0.0,3.1,-1.7,1.07
441580,2055,378,111.9,0.0,3.1,-1.7,1.07
441580,2085,378,111.9,0.0,3.1,-1.7,1.07
441580,2058,378,111.9,0.0,3.1,-1.7,1.07
441594,2033,377,111.9,0.0,3.1,-1.7,1.07
441594,2020,377,111.9,0.0,3.1,-1.7,1.07
441595,2028,377,111.9,0.0,3.1,-1.7,1.07
441612,2144,377,111.9,0.0,3.1,-1.7,1.08
441613,2171,377,111.9,0.0,3.1,-1.7,1.08
441613,2168,377,111.9,0.0,3.1,-1.7,1.08
441613,2135,377,111.9,0.0,3.1,-1.7,1.08
441626,1980,376,111.9,0.0,3.1,-1.7,1.08
441626,2002,376,111.9,0.0,3.1,-1.7,1.08
441626,2008,376,111.9,0.0,3.1,-1.7,1.08
441647,2036,376,111.9,0.0,3.1,-1.7,1.08
441648,2013,376,111.9,0.0,3.1,-1.7,1.08
441649,2017,376,111.9,0.0,3.1,-1.7,1.08
441649,2044,376,111.9,0.0,3.1,-1.7,1.08
441662,2052,376,111.9,0.0,3.2,-1.8,1.07
441663,2033,376,111.9,0.0,3.2,-1.8,1.07
441663,2014,376,111.9,0.0,3.2,-1.8,1.07
441663,2007,376,111.9,0.0,3.2,-1.8,1.07
441679,2061,376,111.9,0.0,3.2,-1.8,1.07
441679,2071,376,111.9,0.0,3.2,-1.8,1.07
441679,2055,376,111.9,0.0,3.2,-1.8,1.07
441680,2037,376,111.9,0.0,3.2,-1.8,1.07
441693,2129,376,111.9,0.0,3.2,-1.8,1.07
441693,2155,376,111.9,0.0,3.2,-1.8,1.07
441694,2168,376,111.9,0.0,3.2,-1.8,1.07
441712,2103,375,111.9,0.0,3.1,-1.8,1.07
441713,2105,375,111.9,0.0,3.1,-1.8,1.07
441713,2106,375,111.9,0.0,3.1,-1.8,1.07
441713,2117,375,111.9,0.0,3.1,-1.8,1.07
441726,2015,375,111.9,0.0,3.1,-1.8,1.07
441727,2014,375,111.9,0.0,3.1,-1.8,1.07
441727,1979,375,111.9,0.0,3.1,-1.8,1.07
441746,2002,375,111.9,0.0,3.1,-1.8,1.07
441746,2034,375,111.9,0.0,3.1,-1.8,1.07
441748,2037,375,111.9,0.0,3.1,-1.8,1.07
441748,2028,375,111.9,0.0,3.1,-1.8,1.07
441762,2059,375,111.9,0.0,3.2,-1.8,1.08
441762,2050,375,111.9,0.0,3.2,-1.8,1.08
441762,2064,375,111.9,0.0,3.2,-1.8,1.08
441762,2049,375,111.9,0.0,3.2,-1.8,1.08
441778,2094,375,111.9,0.0,3.2,-1.8,1.08
441779,2090,375,111.9,0.0,3.2,-1.8,1.08
441779,2068,375,111.9,0.0,3.2,-1.8,1.08
441779,2078,375,111.9,0.0,3.2,-1.8,1.08
441792,2076,375,111.9,0.0,3.2,-1.8,1.08
441793,2073,375,111.9,0.0,3.2,-1.8,1.08
441793,2050,375,111.9,0.0,3.2,-1.8,1.08
441812,2156,375,111.9,0.0,3.2,-1.8,1.07
441814,2183,375,111.9,0.0,3.2,-1.8,1.07
441814,2191,375,111.9,0.0,3.2,-1.8,1.07
441814,2188,375,111.9,0.0,3.2,-1.8,1.07
441827,1985,376,111.9,0.0,3.2,-1.8,1.07
441827,1959,376,111.9,0.0,3.2,-1.8,1.07
441828,1979,376,111.9,0.0,3.2,-1.8,1.07
441845,2011,376,111.9,0.0,3.2,-1.8,1.07
441846,2034,376,111.9,0.0,3.2,-1.8,1.07
441846,2031,376,111.9,0.0,3.2,-1.8,1.07
441846,2022,376,111.9,0.0,3.2,-1.8,1.07
441859,1960,376,111.9,0.0,3.2,-1.8,1.07
441859,1961,376,111.9,0.0,3.2,-1.8,1.07
441860,1967,376,111.9,0.0,3.2,-1.8,1.07
441879,1992,376,111.9,0.0,3.2,-1.8,1.07
441879,2006,376,111.9,0.0,3.2,-1.8,1.07
441879,1995,376,111.9,0.0,3.2,-1.8,1.07
441880,2008,376,111.9,0.0,3.2,-1.8,1.07
441893,1973,376,111.9,0.0,3.2,-1.8,1.07
441894,1924,376,111.9,0.0,3.2,-1.8,1.07
441894,1916,376,111.9,0.0,3.2,-1.8,1.07
441912,2093,376,111.9,0.0,3.2,-1.8,1.08
441913,2067,376,111.9,0.0,3.2,-1.8,1.08
441913,2072,376,111.9,0.0,3.2,-1.8,1.08
441913,2062,376,111.9,0.0,3.2,-1.8,1.08
441926,2013,376,111.9,0.0,3.2,-1.8,1.08
441926,2012,376,111.9,0.0,3.2,-1.8,1.08
441926,2025,376,111.9,0.0,3.2,-1.8,1.08
441945,2030,376,111.9,0.0,3.2,-1.8,1.08
441946,2030,376,111.9,0.0,3.2,-1.8,1.08
441946,2047,376,111.9,0.0,3.2,-1.8,1.08
441946,1993,376,111.9,0.0,3.2,-1.8,1.08
441959,2098,376,111.9,0.0,3.1,-1.8,1.07
441959,2119,376,111.9,0.0,3.1,-1.8,1.07
441959,2064,376,111.9,0.0,3.1,-1.8,1.07
441979,1990,376,111.9,0.0,3.1,-1.8,1.07
441982,2021,377,111.9,0.0,3.1,-1.8,1.07
441982,2010,377,111.9,0.0,3.1,-1.8,1.07
441983,2016,377,111.9,0.0,3.1,-1.8,1.07
441995,2129,377,111.9,0.0,3.1,-1.8,1.07
441996,2131,377,111.9,0.0,3.1,-1.8,1.07
441996,2129,377,111.9,0.0,3.1,-1.8,1.07
441997,2132,377,111.9,0.0,3.1,-1.8,1.07
442015,2061,377,111.9,0.0,3.1,-1.8,1.07
442015,2055,377,111.9,0.0,3.1,-1.8,1.07
442015,2066,377,111.9,0.0,3.1,-1.8,1.07
442015,2047,377,111.9,0.0,3.1,-1.8,1.07
442028,2031,377,111.9,0.0,3.1,-1.8,1.07
442028,2008,377,111.9,0.0,3.1,-1.8,1.07
442029,2017,377,111.9,0.0,3.1,-1.8,1.07
442047,1920,377,111.9,0.0,3.1,-1.8,1.07
442048,1867,377,111.9,0.0,3.1,-1.8,1.07
442048,1906,377,111.9,0.0,3.1,-1.8,1.07
442048,1897,377,111.9,0.0,3.1,-1.8,1.07
442062,2055,377,111.9,0.0,3.1,-1.8,1.07
442062,2027,377,111.9,0.0,3.1,-1.8,1.07
442062,2039,377,111.9,0.0,3.1,-1.8,1.07
442081,2039,377,111.9,0.0,3.1,-1.8,1.07
442081,2047,377,111.9,0.0,3.1,-1.8,1.07
442082,2027,377,111.9,0.0,3.1,-1.8,1.07
442082,2040,377,111.9,0.0,3.1,-1.8,1.07
442094,2082,377,111.9,0.0,3.1,-1.8,1.07
442095,2071,377,111.9,0.0,3.1,-1.8,1.07
442096,2071,377,111.9,0.0,3.1,-1.8,1.07
442097,2064,377,111.9,0.0,3.1,-1.8,1.07
442115,1993,378,111.9,0.0,3.0,-1.8,1.07
442115,1982,378,111.9,0.0,3.0,-1.8,1.07
442116,1990,378,111.9,0.0,3.0,-1.8,1.07
442116,1977,378,111.9,0.0,3.0,-1.8,1.07
442128,2029,378,111.9,0.0,3.0,-1.8,1.07
442129,2041,378,111.9,0.0,3.0,-1.8,1.07
442129,2030,378,111.9,0.0,3.0,-1.8,1.07
442148,2007,378,111.9,0.0,3.0,-1.8,1.07
442151,2015,378,111.9,0.0,3.0,-1.8,1.07
442151,2008,378,111.9,0.0,3.0,-1.8,1.07
442151,1999,378,111.9,0.0,3.0,-1.8,1.07
442164,2040,378,111.9,0.0,3.0,-1.8,1.08
442164,1997,378,111.9,0.0,3.0,-1.8,1.08
442165,2002,378,111.9,0.0,3.0,-1.8,1.08
442165,1997,378,111.9,0.0,3.0,-1.8,1.08
442182,2075,378,111.9,0.0,3.0,-1.8,1.08
442183,2063,378,111.9,0.0,3.0,-1.8,1.08
442183,2067,378,111.9,0.0,3.0,-1.8,1.08
442183,2052,378,111.9,0.0,3.0,-1.8,1.08
442196,2032,378,111.9,0.0,3.0,-1.8,1.08
442197,2027,378,111.9,0.0,3.0,-1.8,1.08
442197,2021,378,111.9,0.0,3.0,-1.8,1.08
442215,2289,378,111.9,0.0,3.0,-1.8,1.07
442215,2285,378,111.9,0.0,3.0,-1.8,1.07
442215,2284,378,111.9,0.0,3.0,-1.8,1.07
442215,2297,378,111.9,0.0,3.0,-1.8,1.07
442228,1963,379,111.9,0.0,3.0,-1.8,1.07
442229,1953,379,111.9,0.0,3.0,-1.8,1.07
442229,1936,379,111.9,0.0,3.0,-1.8,1.07
442247,2013,379,111.9,0.0,3.0,-1.8,1.07
442248,2014,379,111.9,0.0,3.0,-1.8,1.07
442248,2027,379,111.9,0.0,3.0,-1.8,1.07
442248,2019,379,111.9,0.0,3.0,-1.8,1.07
442261,1918,379,111.9,0.0,3.0,-1.7,1.08
442262,1925,379,111.9,0.0,3.0,-1.7,1.08
442262,1926,379,111.9,0.0,3.0,-1.7,1.08
442281,2084,379,111.9,0.0,3.0,-1.7,1.08
442281,2096,379,111.9,0.0,3.0,-1.7,1.08
442281,2078,379,111.9,0.0,3.0,-1.7,1.08
442281,2054,379,111.9,0.0,3.0,-1.7,1.08
442294,2081,379,111.9,0.0,3.0,-1.7,1.08
442294,2091,379,111.9,0.0,3.0,-1.7,1.08
442295,2083,379,111.9,0.0,3.0,-1.7,1.08
442315,2091,379,111.9,0.0,3.1,-1.6,1.08
442317,2088,379,111.9,0.0,3.1,-1.6,1.08
442317,2079,379,111.9,0.0,3.1,-1.6,1.08
442317,2079,379,111.9,0.0,3.1,-1.6,1.08
442331,2037,380,111.9,0.0,3.1,-1.6,1.08
442331,2045,380,111.9,0.0,3.1,-1.6,1.08
442332,2042,380,111.9,0.0,3.1,-1.6,1.08
442332,2046,380,111.9,0.0,3.1,-1.6,1.08
442347,2025,380,111.9,0.0,3.1,-1.6,1.08
442348,2032,380,111.9,0.0,3.1,-1.6,1.08
442348,2024,380,111.9,0.0,3.1,-1.6,1.08
442348,2002,380,111.9,0.0,3.1,-1.6,1.08
442362,2030,380,111.9,0.0,3.2,-1.7,1.08
442362,2032,380,111.9,0.0,3.2,-1.7,1.08
442362,2033,380,111.9,0.0,3.2,-1.7,1.08
442381,2130,380,111.9,0.0,3.2,-1.7,1.08
442382,2113,380,111.9,0.0,3.2,-1.7,1.08
442382,2109,380,111.9,0.0,3.2,-1.7,1.08
442382,2111,380,111.9,0.0,3.2,-1.7,1.08
442395,2012,380,111.9,0.0,3.2,-1.7,1.08
442395,2016,380,111.9,0.0,3.2,-1.7,1.08
442395,1989,380,111.9,0.0,3.2,-1.7,1.08
442416,1953,381,111.9,0.0,3.2,-1.7,1.08
442418,1937,381,111.9,0.0,3.2,-1.7,1.08
442419,1908,381,111.9,0.0,3.2,-1.7,1.08
442420,1941,381,111.9,0.0,3.2,-1.7,1.08
442433,2089,381,111.9,0.0,3.2,-1.7,1.08
442433,2066,381,111.9,0.0,3.2,-1.7,1.08
442434,2096,381,111.9,0.0,3.2,-1.7,1.08
442434,2109,381,111.9,0.0,3.2,-1.7,1.08
442451,2033,381,111.9,0.0,3.2,-1.7,1.08
442451,2022,381,111.9,0.0,3.2,-1.7,1.08
442451,2071,381,111.9,0.0,3.2,-1.7,1.08
442451,2103,381,111.9,0.0,3.2,-1.7,1.08
442464,2016,381,111.9,0.0,3.2,-1.8,1.07
442464,2022,381,111.9,0.0,3.2,-1.8,1.07
442464,2009,381,111.9,0.0,3.2,-1.8,1.07
442481,2102,382,111.9,0.0,3.2,-1.8,1.07
442482,2105,382,111.9,0.0,3.2,-1.8,1.07
442482,2105,382,111.9,0.0,3.2,-1.8,1.07
442482,2119,382,111.9,0.0,3.2,-1.8,1.07
442495,1952,382,111.9,0.0,3.2,-1.8,1.07
442495,1933,382,111.9,0.0,3.2,-1.8,1.07
442495,1938,382,111.9,0.0,3.2,-1.8,1.07
442514,2127,382,111.9,0.0,3.2,-1.8,1.07
442516,2117,382,111.9,0.0,3.2,-1.8,1.07
442517,2107,382,111.9,0.0,3.2,-1.8,1.07
442518,2117,382,111.9,0.0,3.2,-1.8,1.07
442531,2045,382,111.9,0.0,3.2,-1.7,1.08
442532,2029,382,111.9,0.0,3.2,-1.7,1.08
442532,2017,382,111.9,0.0,3.2,-1.7,1.08
442533,1960,382,111.9,0.0,3.2,-1.7,1.08
442550,2120,383,111.9,0.0,3.2,-1.7,1.08
442551,2144,383,111.9,0.0,3.2,-1.7,1.08
442551,2151,383,111.9,0.0,3.2,-1.7,1.08
442551,2163,383,111.9,0.0,3.2,-1.7,1.08
442564,1972,383,111.9,0.0,3.2,-1.7,1.08
442564,1965,383,111.9,0.0,3.2,-1.7,1.08
442564,1964,383,111.9,0.0,3.2,-1.7,1.08
442582,2077,383,111.9,0.0,3.1,-1.8,1.07
442583,2063,383,111.9,0.0,3.1,-1.8,1.07
442584,2042,383,111.9,0.0,3.1,-1.8,1.07
442584,2041,383,111.9,0.0,3.1,-1.8,1.07
442597,2112,383,111.9,0.0,3.1,-1.8,1.07
442597,2103,383,111.9,0.0,3.1,-1.8,1.07
442597,2112,383,111.9,0.0,3.1,-1.8,1.07
442615,2024,384,111.9,0.0,3.1,-1.8,1.07
442616,2010,384,111.9,0.0,3.1,-1.8,1.07
442616,1992,384,111.9,0.0,3.1,-1.8,1.07
442616,1984,384,111.9,0.0,3.1,-1.8,1.07
442629,2029,384,111.9,0.0,3.1,-1.8,1.07
442630,2045,384,111.9,0.0,3.1,-1.8,1.07
442630,2046,384,111.9,0.0,3.1,-1.8,1.07
442647,2034,385,111.9,0.0,3.1,-1.8,1.07
442648,2035,385,111.9,0.0,3.1,-1.8,1.07
442648,2033,385,111.9,0.0,3.1,-1.8,1.07
442648,2057,385,111.9,0.0,3.1,-1.8,1.07
442662,2008,385,111.9,0.0,3.1,-1.8,1.07
442662,1984,385,111.9,0.0,3.1,-1.8,1.07
442662,1990,385,111.9,0.0,3.1,-1.8,1.07
442682,2108,386,111.9,0.0,3.2,-1.7,1.08
442682,2108,386,111.9,0.0,3.2,-1.7,1.08
442682,2101,386,111.9,0.0,3.2,-1.7,1.08
442682,2105,386,111.9,0.0,3.2,-1.7,1.08
442695,2232,386,111.9,0.0,3.2,-1.7,1.08
442696,2234,386,111.9,0.0,3.2,-1.7,1.08
442696,2235,386,111.9,0.0,3.2,-1.7,1.08
442721,2051,387,111.9,0.0,3.2,-1.7,1.08
442722,2059,387,111.9,0.0,3.2,-1.7,1.08
442722,2026,387,111.9,0.0,3.2,-1.7,1.08
442723,2025,387,111.9,0.0,3.2,-1.7,1.08
442735,2128,387,111.9,0.0,3.2,-1.7,1.07
442736,2140,387,111.9,0.0,3.2,-1.7,1.07
442736,2139,387,111.9,0.0,3.2,-1.7,1.07
442753,1963,387,111.9,0.0,3.2,-1.7,1.07
442754,1895,387,111.9,0.0,3.2,-1.7,1.07
442754,1927,387,111.9,0.0,3.2,-1.7,1.07
442754,1940,387,111.9,0.0,3.2,-1.7,1.07
442767,2054,387,111.9,0.0,3.2,-1.7,1.07
442767,2047,387,111.9,0.0,3.2,-1.7,1.07
442767,2044,387,111.9,0.0,3.2,-1.7,1.07
442786,2030,388,111.9,0.0,3.2,-1.7,1.08
442787,2028,388,111.9,0.0,3.2,-1.7,1.08
442787,2022,388,111.9,0.0,3.2,-1.7,1.08
442787,2010,388,111.9,0.0,3.2,-1.7,1.08
442801,2076,388,111.9,0.0,3.2,-1.7,1.08
442802,2077,388,111.9,0.0,3.2,-1.7,1.08
442802,2074,388,111.9,0.0,3.2,-1.7,1.08
442824,2075,388,111.9,0.0,3.2,-1.7,1.08
442825,2047,388,111.9,0.0,3.2,-1.7,1.08
442826,2037,388,111.9,0.0,3.2,-1.7,1.08
442826,2030,388,111.9,0.0,3.2,-1.7,1.08
442839,2137,388,111.9,0.0,3.2,-1.7,1.07
442840,2132,388,111.9,0.0,3.2,-1.7,1.07
442840,2115,388,111.9,0.0,3.2,-1.7,1.07
442840,2138,388,111.9,0.0,3.2,-1.7,1.07
442856,1844,388,111.9,0.0,3.2,-1.7,1.07
442856,1842,388,111.9,0.0,3.2,-1.7,1.07
442856,1830,388,111.9,0.0,3.2,-1.7,1.07
442856,1808,388,111.9,0.0,3.2,-1.7,1.07
442870,2081,388,111.9,0.0,3.2,-1.7,1.07
442870,2094,388,111.9,0.0,3.2,-1.7,1.07
442871,2106,388,111.9,0.0,3.2,-1.7,1.07
442889,2008,388,111.9,0.0,3.1,-1.8,1.07
442890,1996,388,111.9,0.0,3.1,-1.8,1.07
442890,2007,388,111.9,0.0,3.1,-1.8,1.07
442890,1989,388,111.9,0.0,3.1,-1.8,1.07
442903,2104,388,111.9,0.0,3.1,-1.8,1.07
442904,2093,388,111.9,0.0,3.1,-1.8,1.07
442904,2076,388,111.9,0.0,3.1,-1.8,1.07
442925,2030,388,111.9,0.0,3.1,-1.8,1.07
442928,2042,388,111.9,0.0,3.1,-1.8,1.07
442928,2049,388,111.9,0.0,3.1,-1.8,1.07
442928,2053,388,111.9,0.0,3.1,-1.8,1.07
442940,2224,388,111.9,0.0,3.2,-1.7,1.08
442941,2196,388,111.9,0.0,3.2,-1.7,1.08
442941,2197,388,111.9,0.0,3.2,-1.7,1.08
442941,2204,388,111.9,0.0,3.2,-1.7,1.08
442958,1932,388,111.9,0.0,3.2,-1.7,1.08
442958,1924,388,111.9,0.0,3.2,-1.7,1.08
442959,1900,388,111.9,0.0,3.2,-1.7,1.08
442959,1917,388,111.9,0.0,3.2,-1.7,1.08
442971,2098,388,111.9,0.0,3.2,-1.7,1.08
442972,2117,388,111.9,0.0,3.2,-1.7,1.08
442972,2131,388,111.9,0.0,3.2,-1.7,1.08
442990,1961,388,111.9,0.0,3.1,-1.7,1.08
442991,1970,388,111.9,0.0,3.1,-1.7,1.08
442991,1998,388,111.9,0.0,3.1,-1.7,1.08
442991,1997,388,111.9,0.0,3.1,-1.7,1.08
443004,2079,388,111.9,0.0,3.1,-1.7,1.08
443005,2058,388,111.9,0.0,3.1,-1.7,1.08
443005,2063,388,111.9,0.0,3.1,-1.7,1.08
443024,2049,388,111.9,0.0,3.1,-1.7,1.08
443024,2069,388,111.9,0.0,3.1,-1.7,1.08
443024,2045,388,111.9,0.0,3.1,-1.7,1.08
443025,2033,388,111.9,0.0,3.1,-1.7,1.08
443038,2056,388,111.9,0.0,3.1,-1.6,1.07
443039,2053,388,111.9,0.0,3.1,-1.6,1.07
443039,2072,388,111.9,0.0,3.1,-1.6,1.07
443056,2034,387,111.9,0.0,3.1,-1.6,1.07
443056,2027,387,111.9,0.0,3.1,-1.6,1.07
443056,2031,387,111.9,0.0,3.1,-1.6,1.07
443056,2037,387,111.9,0.0,3.1,-1.6,1.07
443070,2035,387,111.9,0.0,3.1,-1.6,1.07
443070,2030,387,111.9,0.0,3.1,-1.6,1.07
443071,2047,387,111.9,0.0,3.1,-1.6,1.07
443089,1926,387,111.9,0.0,3.1,-1.6,1.07
443090,1923,387,111.9,0.0,3.1,-1.6,1.07
443090,1906,387,111.9,0.0,3.1,-1.6,1.07
443090,1884,387,111.9,0.0,3.1,-1.6,1.07
443103,2038,387,111.9,0.0,3.1,-1.7,1.08
443103,2077,387,111.9,0.0,3.1,-1.7,1.08
443103,2065,387,111.9,0.0,3.1,-1.7,1.08
443122,2049,387,111.9,0.0,3.1,-1.7,1.08
443123,2047,387,111.9,0.0,3.1,-1.7,1.08
443123,2041,387,111.9,0.0,3.1,-1.7,1.08
443123,2029,387,111.9,0.0,3.1,-1.7,1.08
443137,2159,387,111.9,0.0,3.1,-1.7,1.08
443137,2157,387,111.9,0.0,3.1,-1.7,1.08
443137,2147,387,111.9,0.0,3.1,-1.7,1.08
443155,2070,387,111.9,0.0,3.1,-1.8,1.08
443155,2064,387,111.9,0.0,3.1,-1.8,1.08
443155,2045,387,111.9,0.0,3.1,-1.8,1.08
443156,2054,387,111.9,0.0,3.1,-1.8,1.08
443169,2018,387,111.9,0.0,3.1,-1.8,1.08
443170,2017,387,111.9,0.0,3.1,-1.8,1.08
443170,2022,387,111.9,0.0,3.1,-1.8,1.08
443188,2050,387,111.9,0.0,3.1,-1.8,1.08
443189,2047,387,111.9,0.0,3.1,-1.8,1.08
443189,2059,387,111.9,0.0,3.1,-1.8,1.08
443191,2060,387,111.9,0.0,3.1,-1.8,1.08
443203,1995,387,111.9,0.0,3.1,-1.8,1.07
443204,1990,387,111.9,0.0,3.1,-1.8,1.07
443204,1977,387,111.9,0.0,3.1,-1.8,1.07
443204,1985,387,111.9,0.0,3.1,-1.8,1.07
443222,2030,387,111.9,0.0,3.1,-1.8,1.07
443223,2028,387,111.9,0.0,3.1,-1.8,1.07
443223,2025,387,111.9,0.0,3.1,-1.8,1.07
443223,2023,387,111.9,0.0,3.1,-1.8,1.07
443237,2127,386,111.9,0.0,3.1,-1.8,1.07
443237,2118,386,111.9,0.0,3.1,-1.8,1.07
443237,2125,386,111.9,0.0,3.1,-1.8,1.07
443256,2054,386,111.9,0.0,3.3,-1.6,1.09
443258,2039,386,111.9,0.0,3.3,-1.6,1.09
443258,2038,386,111.9,0.0,3.3,-1.6,1.09
443258,2029,386,111.9,0.0,3.3,-1.6,1.09
443271,2029,386,111.9,0.0,3.3,-1.6,1.09
443272,2051,386,111.9,0.0,3.3,-1.6,1.09
443272,2033,386,111.9,0.0,3.3,-1.6,1.09
443293,1355,386,111.9,0.0,3.3,-1.6,1.09
443296,253,386,111.9,0.0,3.3,-1.6,1.09
443296,252,386,111.9,0.0,3.3,-1.6,1.09
443296,205,386,111.9,0.0,3.3,-1.6,1.09
443309,2296,386,111.9,0.0,3.3,-1.7,1.08
443309,2432,386,111.9,0.0,3.3,-1.7,1.08
443309,2594,386,111.9,0.0,3.3,-1.7,1.08
443309,2703,386,111.9,0.0,3.3,-1.7,1.08
443325,1711,386,111.9,0.0,3.3,-1.7,1.08
443325,1577,386,111.9,0.0,3.3,-1.7,1.08
443326,1532,386,111.9,0.0,3.3,-1.7,1.08
443326,1592,386,111.9,0.0,3.3,-1.7,1.08
443339,2263,386,111.9,0.0,3.3,-1.7,1.08
443340,2247,386,111.9,0.0,3.3,-1.7,1.08
443340,2189,386,111.9,0.0,3.3,-1.7,1.08
443358,2165,386,111.9,0.0,3.3,-1.7,1.08
443359,2211,386,111.9,0.0,3.3,-1.7,1.08
443359,2242,386,111.9,0.0,3.3,-1.7,1.08
443359,2214,386,111.9,0.0,3.3,-1.7,1.08
443372,1971,386,111.9,0.0,3.3,-1.7,1.08
443372,1975,386,111.9,0.0,3.3,-1.7,1.08
443372,2029,386,111.9,0.0,3.3,-1.7,1.08
443394,1983,385,111.9,0.0,3.3,-1.7,1.08
443396,1842,385,111.9,0.0,3.3,-1.7,1.08
443397,1783,385,111.9,0.0,3.3,-1.7,1.08
443397,1763,385,111.9,0.0,3.3,-1.7,1.08
443409,2084,385,111.9,0.0,3.2,-1.7,1.08
443410,2126,385,111.9,0.0,3.2,-1.7,1.08
443410,2103,385,111.9,0.0,3.2,-1.7,1.08
443410,2094,385,111.9,0.0,3.2,-1.7,1.08
443427,1959,385,111.9,0.0,3.2,-1.7,1.08
443427,1957,385,111.9,0.0,3.2,-1.7,1.08
443427,1993,385,111.9,0.0,3.2,-1.7,1.08
443427,1979,385,111.9,0.0,3.2,-1.7,1.08
443440,1970,385,111.9,0.0,3.2,-1.7,1.08
443440,1971,385,111.9,0.0,3.2,-1.7,1.08
443441,1996,385,111.9,0.0,3.2,-1.7,1.08
443459,2003,385,111.9,0.0,3.1,-1.7,1.08
443460,1979,385,111.9,0.0,3.1,-1.7,1.08
443460,1943,385,111.9,0.0,3.1,-1.7,1.08
443460,1955,385,111.9,0.0,3.1,-1.7,1.08
443473,2126,385,111.9,0.0,3.1,-1.7,1.08
443474,2172,385,111.9,0.0,3.1,-1.7,1.08
443475,2186,385,111.9,0.0,3.1,-1.7,1.08
443499,2267,384,111.9,0.0,3.1,-1.7,1.08
443500,2217,384,111.9,0.0,3.1,-1.7,1.08
443501,2225,384,111.9,0.0,3.1,-1.7,1.08
443502,2230,384,111.9,0.0,3.1,-1.7,1.08
443516,2111,384,111.9,0.0,3.0,-1.8,1.07
443516,2096,384,111.9,0.0,3.0,-1.8,1.07
443517,2096,384,111.9,0.0,3.0,-1.8,1.07
443517,2107,384,111.9,0.0,3.0,-1.8,1.07
443532,2079,384,111.9,0.0,3.0,-1.8,1.07
443533,2079,384,111.9,0.0,3.0,-1.8,1.07
443533,2060,384,111.9,0.0,3.0,-1.8,1.07
443533,2050,384,111.9,0.0,3.0,-1.8,1.07
443547,2029,384,111.9,0.0,3.0,-1.8,1.07
443547,2047,384,111.9,0.0,3.0,-1.8,1.07
443547,2050,384,111.9,0.0,3.0,-1.8,1.07
443564,1953,384,111.9,0.0,3.1,-1.8,1.07
443564,1955,384,111.9,0.0,3.1,-1.8,1.07
443565,1981,384,111.9,0.0,3.1,-1.8,1.07
443565,1987,384,111.9,0.0,3.1,-1.8,1.07
443578,2071,384,111.9,0.0,3.1,-1.8,1.07
443579,2049,384,111.9,0.0,3.1,-1.8,1.07
443579,2036,384,111.9,0.0,3.1,-1.8,1.07
443598,2159,383,111.9,0.0,3.1,-1.8,1.07
443598,2166,383,111.9,0.0,3.1,-1.8,1.07
443599,2173,383,111.9,0.0,3.1,-1.8,1.07
443600,2131,383,111.9,0.0,3.1,-1.8,1.07
443613,2044,383,111.9,0.0,3.1,-1.9,1.07
443614,2070,383,111.9,0.0,3.1,-1.9,1.07
443614,2047,383,111.9,0.0,3.1,-1.9,1.07
443614,2048,383,111.9,0.0,3.1,-1.9,1.07
443631,2036,383,111.9,0.0,3.1,-1.9,1.07
443631,2037,383,111.9,0.0,3.1,-1.9,1.07
443631,2032,383,111.9,0.0,3.1,-1.9,1.07
443631,2058,383,111.9,0.0,3.1,-1.9,1.07
443645,1947,383,111.9,0.0,3.1,-1.9,1.07
443645,1969,383,111.9,0.0,3.1,-1.9,1.07
443646,1972,383,111.9,0.0,3.1,-1.9,1.07
443662,1775,383,111.9,0.0,3.1,-1.9,1.07
443663,1808,383,111.9,0.0,3.1,-1.9,1.07
443663,1809,383,111.9,0.0,3.1,-1.9,1.07
443663,1807,383,111.9,0.0,3.1,-1.9,1.07
443677,2223,382,111.9,0.0,3.2,-1.8,1.07
443677,2219,382,111.9,0.0,3.2,-1.8,1.07
443677,2236,382,111.9,0.0,3.2,-1.8,1.07
443696,2210,382,111.9,0.0,3.2,-1.8,1.07
443697,2200,382,111.9,0.0,3.2,-1.8,1.07
443699,2187,382,111.9,0.0,3.2,-1.8,1.07
443700,2184,382,111.9,0.0,3.2,-1.8,1.07
443713,2048,382,111.9,0.0,3.2,-1.8,1.07
443713,2151,382,111.9,0.0,3.2,-1.8,1.07
443713,2144,382,111.9,0.0,3.2,-1.8,1.07
443713,2127,382,111.9,0.0,3.2,-1.8,1.07
443732,1998,381,111.9,0.0,3.1,-1.7,1.08
443732,2052,381,111.9,0.0,3.1,-1.7,1.08
443732,2078,381,111.9,0.0,3.1,-1.7,1.08
443732,2192,381,111.9,0.0,3.1,-1.7,1.08
443746,2012,381,111.9,0.0,3.1,-1.7,1.08
443746,2027,381,111.9,0.0,3.1,-1.7,1.08
443747,2037,381,111.9,0.0,3.1,-1.7,1.08
443763,1988,381,111.9,0.0,3.1,-1.7,1.08
443764,1972,381,111.9,0.0,3.1,-1.7,1.08
443764,1967,381,111.9,0.0,3.1,-1.7,1.08
443764,1983,381,111.9,0.0,3.1,-1.7,1.08
443778,2158,380,111.9,0.0,3.1,-1.8,1.08
443778,2144,380,111.9,0.0,3.1,-1.8,1.08
443778,2123,380,111.9,0.0,3.1,-1.8,1.08
443798,1957,380,111.9,0.0,3.1,-1.8,1.08
443798,1945,380,111.9,0.0,3.1,-1.8,1.08
443800,1969,380,111.9,0.0,3.1,-1.8,1.08
443801,1973,380,111.9,0.0,3.1,-1.8,1.08
443815,2301,379,111.9,0.0,3.1,-1.8,1.08
443816,2309,379,111.9,0.0,3.1,-1.8,1.08
443816,2345,379,111.9,0.0,3.1,-1.8,1.08
443816,2362,379,111.9,0.0,3.1,-1.8,1.08
443834,2043,379,111.9,0.0,3.1,-1.9,1.07
443835,2026,379,111.9,0.0,3.1,-1.9,1.07
443835,2017,379,111.9,0.0,3.1,-1.9,1.07
443835,2033,379,111.9,0.0,3.1,-1.9,1.07
443848,2049,379,111.9,0.0,3.1,-1.9,1.07
443848,2019,379,111.9,0.0,3.1,-1.9,1.07
443848,2031,379,111.9,0.0,3.1,-1.9,1.07
443867,1986,378,111.9,0.0,3.1,-1.9,1.07
443868,1998,378,111.9,0.0,3.1,-1.9,1.07
443868,2037,378,111.9,0.0,3.1,-1.9,1.07
443868,2013,378,111.9,0.0,3.1,-1.9,1.07
443881,2214,378,111.9,0.0,3.1,-1.8,1.07
443881,2209,378,111.9,0.0,3.1,-1.8,1.07
443881,2208,378,111.9,0.0,3.1,-1.8,1.07
443900,1871,378,111.9,0.0,3.1,-1.8,1.07
443901,1926,378,111.9,0.0,3.1,-1.8,1.07
443904,1981,377,111.9,0.0,3.1,-1.8,1.07
443905,1965,377,111.9,0.0,3.1,-1.8,1.07
443905,1962,377,111.9,0.0,3.1,-1.8,1.07
443918,2143,377,111.9,0.0,3.1,-1.8,1.07
443919,2127,377,111.9,0.0,3.1,-1.8,1.07
443919,2097,377,111.9,0.0,3.1,-1.8,1.07
443937,1935,377,111.9,0.0,3.2,-1.7,1.07
443937,1946,377,111.9,0.0,3.2,-1.7,1.07
443937,1974,377,111.9,0.0,3.2,-1.7,1.07
443938,1957,377,111.9,0.0,3.2,-1.7,1.07
443950,2048,377,111.9,0.0,3.2,-1.7,1.07
443951,2012,377,111.9,0.0,3.2,-1.7,1.07
443951,2058,377,111.9,0.0,3.2,-1.7,1.07
443969,2009,376,111.9,0.0,3.2,-1.7,1.07
443970,2007,376,111.9,0.0,3.2,-1.7,1.07
443970,1971,376,111.9,0.0,3.2,-1.7,1.07
443970,1966,376,111.9,0.0,3.2,-1.7,1.07
443983,2054,376,111.9,0.0,3.1,-1.6,1.07
443983,2073,376,111.9,0.0,3.1,-1.6,1.07
443983,2066,376,111.9,0.0,3.1,-1.6,1.07
444002,2154,376,111.9,0.0,3.1,-1.6,1.07
444005,2061,376,111.9,0.0,3.1,-1.6,1.07
444005,2063,376,111.9,0.0,3.1,-1.6,1.07
444005,2087,376,111.9,0.0,3.1,-1.6,1.07
444018,2067,376,111.9,0.0,3.1,-1.6,1.07
444019,2045,376,111.9,0.0,3.1,-1.6,1.07
444019,2034,376,111.9,0.0,3.1,-1.6,1.07
444019,2050,376,111.9,0.0,3.1,-1.6,1.07
444043,2010,376,111.9,0.0,3.0,-1.7,1.08
444046,2022,376,111.9,0.0,3.0,-1.7,1.08
444046,2004,376,111.9,0.0,3.0,-1.7,1.08
444046,2003,376,111.9,0.0,3.0,-1.7,1.08
444059,2132,376,111.9,0.0,3.0,-1.7,1.08
444059,2135,376,111.9,0.0,3.0,-1.7,1.08
444059,2138,376,111.9,0.0,3.0,-1.7,1.08
444060,2125,376,111.9,0.0,3.0,-1.7,1.08
444076,1995,376,111.9,0.0,3.0,-1.7,1.08
444077,2018,376,111.9,0.0,3.0,-1.7,1.08
444077,2030,376,111.9,0.0,3.0,-1.7,1.08
444077,2024,376,111.9,0.0,3.0,-1.7,1.08
444089,2022,376,111.9,0.0,3.1,-1.8,1.08
444090,2035,376,111.9,0.0,3.1,-1.8,1.08
444090,2041,376,111.9,0.0,3.1,-1.8,1.08
444109,2006,376,111.9,0.0,3.1,-1.8,1.08
444112,1962,376,111.9,0.0,3.1,-1.8,1.08
444112,1994,376,111.9,0.0,3.1,-1.8,1.08
444113,1992,376,111.9,0.0,3.1,-1.8,1.08
444127,2046,376,111.9,0.0,3.1,-1.8,1.08
444127,2081,376,111.9,0.0,3.1,-1.8,1.08
444127,2050,376,111.9,0.0,3.1,-1.8,1.08
444128,2027,376,111.9,0.0,3.1,-1.8,1.08
444148,2022,376,111.9,0.0,3.1,-1.7,1.08
444149,2037,376,111.9,0.0,3.1,-1.7,1.08
444150,2045,376,111.9,0.0,3.1,-1.7,1.08
444150,2037,376,111.9,0.0,3.1,-1.7,1.08
444163,2035,376,111.9,0.0,3.1,-1.7,1.08
444164,2027,376,111.9,0.0,3.1,-1.7,1.08
444164,2034,376,111.9,0.0,3.1,-1.7,1.08
444164,2030,376,111.9,0.0,3.1,-1.7,1.08
444180,1961,376,111.9,0.0,3.1,-1.7,1.08
444180,1918,376,111.9,0.0,3.1,-1.7,1.08
444180,1942,376,111.9,0.0,3.1,-1.7,1.08
444180,1941,376,111.9,0.0,3.1,-1.7,1.08
444194,2202,376,111.9,0.0,3.1,-1.7,1.08
444194,2185,376,111.9,0.0,3.1,-1.7,1.08
444194,2221,376,111.9,0.0,3.1,-1.7,1.08
444213,1884,376,111.9,0.0,3.1,-1.7,1.08
444214,1682,376,111.9,0.0,3.1,-1.7,1.08
444214,1582,376,111.9,0.0,3.1,-1.7,1.08
444214,1495,376,111.9,0.0,3.1,-1.7,1.08
444227,1951,376,111.9,0.0,3.1,-1.7,1.08
444228,2050,376,111.9,0.0,3.1,-1.7,1.08
444228,2132,376,111.9,0.0,3.1,-1.7,1.08
444250,1765,377,111.9,0.0,3.0,-1.6,1.07
444253,1909,377,111.9,0.0,3.0,-1.6,1.07
444254,1904,377,111.9,0.0,3.0,-1.6,1.07
444254,1867,377,111.9,0.0,3.0,-1.6,1.07
444267,2083,377,111.9,0.0,3.0,-1.6,1.07
444267,2111,377,111.9,0.0,3.0,-1.6,1.07
444268,2105,377,111.9,0.0,3.0,-1.6,1.07
444268,2080,377,111.9,0.0,3.0,-1.6,1.07
444285,2012,377,111.9,0.0,3.0,-1.6,1.07
444285,2022,377,111.9,0.0,3.0,-1.6,1.07
444285,2032,377,111.9,0.0,3.0,-1.6,1.07
444286,2023,377,111.9,0.0,3.0,-1.6,1.07
444298,1996,377,111.9,0.0,3.0,-1.6,1.07
444298,1986,377,111.9,0.0,3.0,-1.6,1.07
444299,2004,377,111.9,0.0,3.0,-1.6,1.07
444317,2165,377,111.9,0.0,3.0,-1.6,1.07
444318,2167,377,111.9,0.0,3.0,-1.6,1.07
444318,2148,377,111.9,0.0,3.0,-1.6,1.07
444318,2145,377,111.9,0.0,3.0,-1.6,1.07
444331,1997,377,111.9,0.0,3.0,-1.6,1.07
444331,2022,377,111.9,0.0,3.0,-1.6,1.07
444331,2008,377,111.9,0.0,3.0,-1.6,1.07
444350,2015,377,111.9,0.0,3.1,-1.6,1.07
444351,1999,377,111.9,0.0,3.1,-1.6,1.07
444351,2018,377,111.9,0.0,3.1,-1.6,1.07
444351,2024,377,111.9,0.0,3.1,-1.6,1.07
444365,2029,377,111.9,0.0,3.1,-1.6,1.07
444365,2012,377,111.9,0.0,3.1,-1.6,1.07
444365,2017,377,111.9,0.0,3.1,-1.6,1.07
444384,1995,378,111.9,0.0,3.1,-1.6,1.07
444384,2015,378,111.9,0.0,3.1,-1.6,1.07
444384,1994,378,111.9,0.0,3.1,-1.6,1.07
444384,1981,378,111.9,0.0,3.1,-1.6,1.07
444397,2089,378,111.9,0.0,3.2,-1.8,1.07
444397,2119,378,111.9,0.0,3.2,-1.8,1.07
444398,2129,378,111.9,0.0,3.2,-1.8,1.07
444417,2227,378,111.9,0.0,3.2,-1.8,1.07
444419,2169,378,111.9,0.0,3.2,-1.8,1.07
444419,2199,378,111.9,0.0,3.2,-1.8,1.07
444420,2208,378,111.9,0.0,3.2,-1.8,1.07
444433,2122,378,111.9,0.0,3.2,-1.8,1.07
444434,2047,378,111.9,0.0,3.2,-1.8,1.07
444434,2019,378,111.9,0.0,3.2,-1.8,1.07
444434,2019,378,111.9,0.0,3.2,-1.8,1.07
444450,2042,378,111.9,0.0,3.2,-1.8,1.07
444450,2054,378,111.9,0.0,3.2,-1.8,1.07
444450,2043,378,111.9,0.0,3.2,-1.8,1.07
444450,2023,378,111.9,0.0,3.2,-1.8,1.07
444464,2064,378,111.9,0.0,3.1,-1.7,1.08
444464,2065,378,111.9,0.0,3.1,-1.7,1.08
444464,2082,378,111.9,0.0,3.1,-1.7,1.08
444482,2089,378,111.9,0.0,3.1,-1.7,1.08
444483,2061,378,111.9,0.0,3.1,-1.7,1.08
444483,2049,378,111.9,0.0,3.1,-1.7,1.08
444483,2071,378,111.9,0.0,3.1,-1.7,1.08
444496,2163,379,111.9,0.0,3.1,-1.7,1.08
444497,2163,379,111.9,0.0,3.1,-1.7,1.08
444497,2197,379,111.9,0.0,3.1,-1.7,1.08
444517,2039,379,111.9,0.0,3.0,-1.6,1.08
444517,2047,379,111.9,0.0,3.0,-1.6,1.08
444518,2048,379,111.9,0.0,3.0,-1.6,1.08
444519,2037,379,111.9,0.0,3.0,-1.6,1.08
444533,2050,379,111.9,0.0,3.0,-1.6,1.08
444534,2017,379,111.9,0.0,3.0,-1.6,1.08
444535,1947,379,111.9,0.0,3.0,-1.6,1.08
444535,1922,379,111.9,0.0,3.0,-1.6,1.08
444551,2117,379,111.9,0.0,3.0,-1.6,1.08
444551,2110,379,111.9,0.0,3.0,-1.6,1.08
444551,2093,379,111.9,0.0,3.0,-1.6,1.08
444552,2150,379,111.9,0.0,3.0,-1.6,1.08
444565,1989,379,111.9,0.0,3.0,-1.6,1.07
444565,1971,379,111.9,0.0,3.0,-1.6,1.07
444566,1956,379,111.9,0.0,3.0,-1.6,1.07
444584,2056,379,111.9,0.0,3.0,-1.6,1.07
444585,2071,379,111.9,0.0,3.0,-1.6,1.07
444585,2073,379,111.9,0.0,3.0,-1.6,1.07
444585,2067,379,111.9,0.0,3.0,-1.6,1.07
444598,1961,380,111.9,0.0,3.0,-1.6,1.07
444598,1964,380,111.9,0.0,3.0,-1.6,1.07
444598,1985,380,111.9,0.0,3.0,-1.6,1.07
444617,2062,380,111.9,0.0,3.0,-1.7,1.08
444618,2049,380,111.9,0.0,3.0,-1.7,1.08
444618,2029,380,111.9,0.0,3.0,-1.7,1.08
444618,2013,380,111.9,0.0,3.0,-1.7,1.08
444632,2038,380,111.9,0.0,3.0,-1.7,1.08
444632,2054,380,111.9,0.0,3.0,-1.7,1.08
444632,2039,380,111.9,0.0,3.0,-1.7,1.08
444649,2017,380,111.9,0.0,3.0,-1.7,1.08
444650,2023,380,111.9,0.0,3.0,-1.7,1.08
444650,2038,380,111.9,0.0,3.0,-1.7,1.08
444650,2035,380,111.9,0.0,3.0,-1.7,1.08
444664,2020,380,111.9,0.0,3.1,-1.8,1.08
444664,2010,380,111.9,0.0,3.1,-1.8,1.08
444664,2001,380,111.9,0.0,3.1,-1.8,1.08
444684,2085,381,111.9,0.0,3.1,-1.8,1.08
444684,2076,381,111.9,0.0,3.1,-1.8,1.08
444684,2065,381,111.9,0.0,3.1,-1.8,1.08
444686,2033,381,111.9,0.0,3.1,-1.8,1.08
444699,2013,381,111.9,0.0,3.1,-1.8,1.08
444699,2009,381,111.9,0.0,3.1,-1.8,1.08
444699,2009,381,111.9,0.0,3.1,-1.8,1.08
444718,2158,381,111.9,0.0,3.2,-1.8,1.07
444719,2157,381,111.9,0.0,3.2,-1.8,1.07
444719,2174,381,111.9,0.0,3.2,-1.8,1.07
444719,2176,381,111.9,0.0,3.2,-1.8,1.07
444733,2001,381,111.9,0.0,3.2,-1.8,1.07
444733,2031,381,111.9,0.0,3.2,-1.8,1.07
444733,2005,381,111.9,0.0,3.2,-1.8,1.07
444751,2092,382,111.9,0.0,3.2,-1.8,1.07
444752,2102,382,111.9,0.0,3.2,-1.8,1.07
444752,2117,382,111.9,0.0,3.2,-1.8,1.07
444752,2108,382,111.9,0.0,3.2,-1.8,1.07
444765,2119,382,111.9,0.0,3.1,-1.7,1.08
444765,2086,382,111.9,0.0,3.1,-1.7,1.08
444765,2087,382,111.9,0.0,3.1,-1.7,1.08
444785,2100,382,111.9,0.0,3.1,-1.7,1.08
444786,2089,382,111.9,0.0,3.1,-1.7,1.08
444788,2056,382,111.9,0.0,3.1,-1.7,1.08
444788,2038,382,111.9,0.0,3.1,-1.7,1.08
444802,2142,382,111.9,0.0,3.1,-1.7,1.08
444802,2143,382,111.9,0.0,3.1,-1.7,1.08
444802,2127,382,111.9,0.0,3.1,-1.7,1.08
444803,2123,382,111.9,0.0,3.1,-1.7,1.08
444819,2018,383,111.9,0.0,3.0,-1.7,1.07
444820,2038,383,111.9,0.0,3.0,-1.7,1.07
444820,2026,383,111.9,0.0,3.0,-1.7,1.07
