timestamp_ms,sample_seq,ecg_raw,ecg_cleaned,ppg_dc_ir,ecg_bpm,spo2_pct,pitch_deg,roll_deg,motion_g,signal_quality
1790979679950,1,2098.0,14.65167750702744,-211.0,111.9,98.0,-0.9,-0.3,1.08,GOOD
1790979679950,2,2100.0,19.80177342108888,-210.0,111.9,98.0,-0.9,-0.3,1.08,GOOD
1790979679950,3,2091.0,16.341718959068523,-209.0,111.9,98.0,-0.9,-0.3,1.08,GOOD
1790979679950,4,2118.0,10.93824683323716,-209.0,111.9,98.0,-0.9,-0.3,1.08,GOOD
1790979679950,5,2069.0,7.615188910788196,-208.0,111.9,98.0,-0.9,-0.3,1.08,GOOD
1790979679950,6,2109.0,3.774370390451007,-207.0,111.9,98.0,-0.9,-0.3,1.08,GOOD
1790979679950,7,2093.0,-0.9736474163161766,-206.0,111.9,98.0,-0.9,-0.3,1.08,GOOD
1790979679950,8,2082.0,-3.3171195320573776,-207.0,111.9,98.0,-0.9,-0.3,1.08,GOOD
1790979679950,9,2031.0,-5.921619010860077,-204.0,111.9,98.0,-0.9,-0.3,1.08,GOOD
1790979679950,10,2183.0,-10.301185494883159,-202.0,111.9,98.0,-0.9,-0.3,1.08,GOOD
1790979679950,11,2178.0,-4.224325792078063,-201.0,111.9,98.0,-0.9,-0.3,1.08,GOOD
1790979679950,12,2180.0,20.61132212551832,-198.0,111.9,98.0,-0.9,-0.3,1.08,GOOD
1790979679950,13,2129.0,51.264970178963154,-195.0,111.9,98.0,-0.9,-0.3,1.08,GOOD
1790979679950,14,2120.0,68.4897943700357,-192.0,111.9,98.0,-0.9,-0.3,1.08,GOOD
1790979679950,15,2118.0,64.61445123579217,-191.0,111.9,98.0,-0.9,-0.3,1.08,GOOD
1790979679950,16,2157.0,46.65099006820786,-189.0,111.9,98.0,-0.9,-0.3,1.08,GOOD
1790979679950,17,2159.0,29.829533228117995,-187.0,111.9,98.0,-0.9,-0.3,1.08,GOOD
1790979679950,18,2152.0,25.643473912080832,-183.0,111.9,98.0,-0.9,-0.3,1.08,GOOD
1790979679950,19,2161.0,34.642457094653835,-181.0,111.9,98.0,-0.9,-0.3,1.08,GOOD
1790979679950,20,2051.0,44.77644883972321,-180.0,111.9,98.0,-0.9,-0.3,1.08,GOOD
1790979679950,21,2017.0,34.99211794798795,-179.0,111.9,98.0,-0.9,-0.3,1.08,GOOD
1790979679950,22,1938.0,-6.8055614273578104,-179.0,111.9,98.0,-0.9,-0.3,1.08,GOOD
1790979679950,23,1904.0,-71.39282221132655,-178.0,111.9,98.0,-0.9,-0.3,1.08,GOOD
1790979679950,24,1813.0,-140.6368314818037,-175.0,111.9,98.0,-0.9,-0.3,1.08,GOOD
1790979679950,25,1849.0,-201.27110760715343,-174.0,111.9,98.0,-0.9,-0.3,1.08,GOOD
1790979679951,26,1547.0,-255.46813009986914,32000.0,111.9,98.0,-0.9,-0.3,1.08,GOOD
1790979679951,27,1562.0,-323.7200222140371,32000.0,111.9,98.0,-0.9,-0.3,1.08,GOOD
1790979679951,28,1561.0,-409.9406073875708,32000.0,111.9,98.0,-0.9,-0.3,1.08,GOOD
1790979679951,29,1568.0,-484.61941774231116,32000.0,111.9,98.0,-0.9,-0.3,1.08,GOOD
1790979679951,30,1761.0,-515.6016749275468,32000.0,111.9,98.0,-0.9,-0.3,1.08,GOOD
1790979679951,31,1939.0,-479.5827679995903,32000.0,111.9,98.0,-0.9,-0.3,1.08,GOOD
1790979679951,32,1928.0,-373.5214851070051,32000.0,111.9,98.0,-0.9,-0.3,1.08,GOOD
1790979679951,33,1769.0,-243.4084108910394,32000.0,111.9,98.0,-0.9,-0.3,1.08,GOOD
1790979679951,34,1552.0,-169.03999827799944,32000.0,111.9,98.0,-0.9,-0.3,1.08,GOOD
1790979679951,35,1391.0,-206.14308272464865,32000.0,111.9,98.0,-0.9,-0.3,1.08,GOOD
1790979679951,36,1490.0,-339.5223182966447,32000.0,111.9,98.0,-0.9,-0.3,1.08,GOOD
1790979679951,37,1464.0,-491.19619347607204,32000.0,111.9,98.0,-0.9,-0.3,1.08,GOOD
1790979679951,38,1665.0,-579.4620198867106,32000.0,111.9,98.0,-0.9,-0.3,1.08,GOOD
1790979679951,39,1761.0,-562.6172892564678,32000.0,111.9,98.0,-0.9,-0.3,1.08,GOOD
1790979679951,40,1665.0,-457.6327412929302,32000.0,111.9,98.0,-0.9,-0.3,1.08,GOOD
1790979679951,41,1597.0,-338.9909042106163,32000.0,111.9,98.0,-0.9,-0.3,1.08,GOOD
1790979679951,42,1547.0,-281.6780196913935,32000.0,111.9,98.0,-0.9,-0.3,1.08,GOOD
1790979679951,43,1639.0,-298.2583710880102,32000.0,111.9,98.0,-0.9,-0.3,1.08,GOOD
1790979679951,44,1722.0,-339.93215681733784,32000.0,111.9,98.0,-0.9,-0.3,1.08,GOOD
1790979679951,45,1707.0,-351.5534337030857,32000.0,111.9,98.0,-0.9,-0.3,1.08,GOOD
1790979679951,46,1717.0,-320.1833799869505,32000.0,111.9,98.0,-0.9,-0.3,1.08,GOOD
1790979679951,47,1727.0,-268.91932541136157,32000.0,111.9,98.0,-0.9,-0.3,1.08,GOOD
1790979679951,48,1773.0,-223.0437693923437,32000.0,111.9,98.0,-0.9,-0.3,1.08,GOOD
1790979679951,49,1820.0,-191.45219514926242,32000.0,111.9,98.0,-0.9,-0.3,1.08,GOOD
1790979679951,50,1895.0,-165.35415490987992,32000.0,111.9,98.0,-0.9,-0.3,1.08,GOOD
1790979681584,51,1725.0,-136.77699193291568,-194.0,93.5,98.0,-1.0,-0.4,1.08,GOOD
1790979681584,52,1735.0,-118.50010192174017,-191.0,93.5,98.0,-1.0,-0.4,1.08,GOOD
1790979681584,53,1716.0,-125.97756328307034,-191.0,93.5,98.0,-1.0,-0.4,1.08,GOOD
1790979681584,54,1730.0,-154.44308547328552,-190.0,93.5,98.0,-1.0,-0.4,1.08,GOOD
1790979681584,55,1757.0,-185.98623459249146,-189.0,93.5,98.0,-1.0,-0.4,1.08,GOOD
1790979681584,56,1788.0,-199.8700014369283,-188.0,93.5,98.0,-1.0,-0.4,1.08,GOOD
1790979681584,57,1807.0,-183.0960147257171,-187.0,93.5,98.0,-1.0,-0.4,1.08,GOOD
1790979681584,58,1769.0,-144.73145647172026,-185.0,93.5,98.0,-1.0,-0.4,1.08,GOOD
1790979681584,59,1781.0,-111.75655714705205,-185.0,93.5,98.0,-1.0,-0.4,1.08,GOOD
1790979681584,60,1788.0,-102.04428231670738,-183.0,93.5,98.0,-1.0,-0.4,1.08,GOOD
1790979681584,61,1867.0,-105.33494741812746,-182.0,93.5,98.0,-1.0,-0.4,1.08,GOOD
1790979681584,62,1852.0,-97.59946808069263,-176.0,93.5,98.0,-1.0,-0.4,1.08,GOOD
1790979681584,63,1793.0,-74.10289160956403,-175.0,93.5,98.0,-1.0,-0.4,1.08,GOOD
1790979681584,64,1946.0,-49.608179881488134,-172.0,93.5,98.0,-1.0,-0.4,1.08,GOOD
1790979681584,65,1950.0,-26.3218003245671,-171.0,93.5,98.0,-1.0,-0.4,1.08,GOOD
1790979681584,66,1966.0,4.014057936224286,-168.0,93.5,98.0,-1.0,-0.4,1.08,GOOD
1790979681584,67,1846.0,34.50719200600636,-165.0,93.5,98.0,-1.0,-0.4,1.08,GOOD
1790979681584,68,1781.0,43.49159809219805,-162.0,93.5,98.0,-1.0,-0.4,1.08,GOOD
1790979681584,69,1714.0,14.329584413685268,-161.0,93.5,98.0,-1.0,-0.4,1.08,GOOD
1790979681584,70,1730.0,-47.851731935236515,-160.0,93.5,98.0,-1.0,-0.4,1.08,GOOD
1790979681584,71,1718.0,-117.0654679234863,-156.0,93.5,98.0,-1.0,-0.4,1.08,GOOD
1790979681584,72,1850.0,-159.44810250397592,-155.0,93.5,98.0,-1.0,-0.4,1.08,GOOD
1790979681584,73,1951.0,-146.67337533142296,-152.0,93.5,98.0,-1.0,-0.4,1.08,GOOD
1790979681584,74,2014.0,-74.85965011463652,-150.0,93.5,98.0,-1.0,-0.4,1.08,GOOD
1790979681584,75,2080.0,27.862511263668523,-151.0,93.5,98.0,-1.0,-0.4,1.08,GOOD
1790979681585,76,2085.0,124.21219202424801,32000.0,93.5,98.0,-1.0,-0.4,1.08,GOOD
1790979681585,77,2134.0,193.47552149140913,32000.0,93.5,98.0,-1.0,-0.4,1.08,GOOD
1790979681585,78,2256.0,240.25222537891142,32000.0,93.5,98.0,-1.0,-0.4,1.08,GOOD
1790979681585,79,2356.0,286.34080997930033,32000.0,93.5,98.0,-1.0,-0.4,1.08,GOOD
1790979681585,80,2675.0,357.6384149768099,32000.0,93.5,98.0,-1.0,-0.4,1.08,GOOD
1790979681585,81,2798.0,476.69577781981366,32000.0,93.5,98.0,-1.0,-0.4,1.08,GOOD
1790979681585,82,2856.0,639.8254268437611,32000.0,93.5,98.0,-1.0,-0.4,1.08,GOOD
1790979681585,83,2750.0,800.4311803936512,32000.0,93.5,98.0,-1.0,-0.4,1.08,GOOD
1790979681585,84,2312.0,881.9809848870988,32000.0,93.5,98.0,-1.0,-0.4,1.08,GOOD
1790979681585,85,2171.0,816.6781084957265,32000.0,93.5,98.0,-1.0,-0.4,1.08,GOOD
1790979681585,86,1813.0,600.3782677603061,32000.0,93.5,98.0,-1.0,-0.4,1.08,GOOD
1790979681585,87,1600.0,292.5299894568922,32000.0,93.5,98.0,-1.0,-0.4,1.08,GOOD
1790979681585,88,1606.0,-23.926218140251486,32000.0,93.5,98.0,-1.0,-0.4,1.08,GOOD
1790979681585,89,1760.0,-259.07077331932896,32000.0,93.5,98.0,-1.0,-0.4,1.08,GOOD
1790979681585,90,2076.0,-341.1788864081259,32000.0,93.5,98.0,-1.0,-0.4,1.08,GOOD
1790979681585,91,2036.0,-261.56797490678014,32000.0,93.5,98.0,-1.0,-0.4,1.08,GOOD
1790979681585,92,2070.0,-92.04526017259109,32000.0,93.5,98.0,-1.0,-0.4,1.08,GOOD
1790979681585,93,2060.0,68.78812032821078,32000.0,93.5,98.0,-1.0,-0.4,1.08,GOOD
1790979681585,94,2002.0,161.94080132325436,32000.0,93.5,98.0,-1.0,-0.4,1.08,GOOD
1790979681585,95,1902.0,171.15838558338575,32000.0,93.5,98.0,-1.0,-0.4,1.08,GOOD
1790979681585,96,1885.0,108.92370007263786,32000.0,93.5,98.0,-1.0,-0.4,1.08,GOOD
1790979681585,97,1914.0,18.345834603959844,32000.0,93.5,98.0,-1.0,-0.4,1.08,GOOD
1790979681585,98,1991.0,-43.93149861712155,32000.0,93.5,98.0,-1.0,-0.4,1.08,GOOD
1790979681585,99,2025.0,-46.11402174200131,32000.0,93.5,98.0,-1.0,-0.4,1.08,GOOD
1790979681585,100,2036.0,-1.2835796240520252,32000.0,93.5,98.0,-1.0,-0.4,1.08,GOOD
1790979681585,101,2048.0,53.43996762260262,32000.0,93.5,98.0,-1.0,-0.4,1.08,GOOD
1790979681585,102,2046.0,92.39237805659647,32000.0,93.5,98.0,-1.0,-0.4,1.08,GOOD
1790979681585,103,1993.0,109.91791980084325,32000.0,93.5,98.0,-1.0,-0.4,1.08,GOOD
1790979681585,104,1906.0,103.38567107575577,32000.0,93.5,98.0,-1.0,-0.4,1.08,GOOD
1790979681585,105,1842.0,66.46608053484667,32000.0,93.5,98.0,-1.0,-0.4,1.08,GOOD
1790979681585,106,1793.0,1.765268301202351,32000.0,93.5,98.0,-1.0,-0.4,1.08,GOOD
1790979681585,107,1843.0,-69.53941256577735,32000.0,93.5,98.0,-1.0,-0.4,1.08,GOOD
1790979681585,108,1914.0,-115.06070453066195,32000.0,93.5,98.0,-1.0,-0.4,1.08,GOOD
1790979681585,109,1959.0,-113.27865445645023,32000.0,93.5,98.0,-1.0,-0.4,1.08,GOOD
1790979681585,110,1941.0,-72.11683144351109,32000.0,93.5,98.0,-1.0,-0.4,1.08,GOOD
1790979681585,111,1957.0,-20.549810659101947,32000.0,93.5,98.0,-1.0,-0.4,1.08,GOOD
1790979681585,112,1980.0,18.65187237483624,32000.0,93.5,98.0,-1.0,-0.4,1.08,GOOD
1790979681585,113,1962.0,39.92534199275539,32000.0,93.5,98.0,-1.0,-0.4,1.08,GOOD
1790979681585,114,1931.0,43.72944478155513,32000.0,93.5,98.0,-1.0,-0.4,1.08,GOOD
1790979681585,115,1812.0,27.30390836841676,32000.0,93.5,98.0,-1.0,-0.4,1.08,GOOD
1790979681585,116,1817.0,-10.60096883827515,32000.0,93.5,98.0,-1.0,-0.4,1.08,GOOD
1790979681585,117,2117.0,-46.76261588794668,32000.0,93.5,98.0,-1.0,-0.4,1.08,GOOD
1790979681585,118,2136.0,-35.49261495010133,32000.0,93.5,98.0,-1.0,-0.4,1.08,GOOD
1790979681585,119,2134.0,34.860605481083084,32000.0,93.5,98.0,-1.0,-0.4,1.08,GOOD
1790979681585,120,2203.0,127.96177668773102,32000.0,93.5,98.0,-1.0,-0.4,1.08,GOOD
1790979681585,121,2202.0,210.23597164765533,32000.0,93.5,98.0,-1.0,-0.4,1.08,GOOD
1790979681585,122,2176.0,265.1255290268699,32000.0,93.5,98.0,-1.0,-0.4,1.08,GOOD
1790979681585,123,2154.0,279.52990665119063,32000.0,93.5,98.0,-1.0,-0.4,1.08,GOOD
1790979681585,124,2238.0,258.5588245046748,32000.0,93.5,98.0,-1.0,-0.4,1.08,GOOD
1790979681585,125,2297.0,236.94594888720522,32000.0,93.5,98.0,-1.0,-0.4,1.08,GOOD
1790979681883,126,2376.0,251.17660728898815,-133.0,93.5,98.0,-0.9,-0.4,1.08,GOOD
1790979681883,127,2295.0,300.88056498912914,-130.0,93.5,98.0,-0.9,-0.4,1.08,GOOD
1790979681883,128,2339.0,350.0616383540978,-125.0,93.5,98.0,-0.9,-0.4,1.08,GOOD
1790979681883,129,2269.0,368.05396791767464,-119.0,93.5,98.0,-0.9,-0.4,1.08,GOOD
1790979681883,130,2229.0,351.74059402677005,-116.0,93.5,98.0,-0.9,-0.4,1.08,GOOD
1790979681883,131,2237.0,314.677102874964,-114.0,93.5,98.0,-0.9,-0.4,1.08,GOOD
1790979681883,132,2164.0,272.1907726069139,-110.0,93.5,98.0,-0.9,-0.4,1.08,GOOD
1790979681883,133,2107.0,227.86565441761533,-106.0,93.5,98.0,-0.9,-0.4,1.08,GOOD
1790979681883,134,2029.0,175.89494774640593,-106.0,93.5,98.0,-0.9,-0.4,1.08,GOOD
1790979681883,135,2099.0,120.5948294813564,-104.0,93.5,98.0,-0.9,-0.4,1.08,GOOD
1790979681883,136,2091.0,80.61980044555666,-101.0,93.5,98.0,-0.9,-0.4,1.08,GOOD
1790979681883,137,2052.0,65.06994003422327,-100.0,93.5,98.0,-0.9,-0.4,1.08,GOOD
1790979681883,138,2030.0,60.41003121762574,-98.0,93.5,98.0,-0.9,-0.4,1.08,GOOD
1790979681883,139,2028.0,52.00075754637436,-98.0,93.5,98.0,-0.9,-0.4,1.08,GOOD
1790979681883,140,1996.0,38.837766530620286,-93.0,93.5,98.0,-0.9,-0.4,1.08,GOOD
1790979681883,141,2017.0,24.37171179058254,-92.0,93.5,98.0,-0.9,-0.4,1.08,GOOD
1790979681883,142,1998.0,10.238879564939735,-92.0,93.5,98.0,-0.9,-0.4,1.08,GOOD
1790979681883,143,1997.0,-2.3626372219662004,-87.0,93.5,98.0,-0.9,-0.4,1.08,GOOD
1790979681883,144,1880.0,-15.577165172826945,-83.0,93.5,98.0,-0.9,-0.4,1.08,GOOD
1790979681883,145,1998.0,-32.24155859690599,-83.0,93.5,98.0,-0.9,-0.4,1.08,GOOD
1790979681883,146,1852.0,-49.92195174821922,-81.0,93.5,98.0,-0.9,-0.4,1.08,GOOD
1790979681883,147,1822.0,-73.42893588601919,-80.0,93.5,98.0,-0.9,-0.4,1.08,GOOD
1790979681883,148,1745.0,-113.9580362619669,-78.0,93.5,98.0,-0.9,-0.4,1.08,GOOD
1790979681883,149,1683.0,-169.6472795243483,-78.0,93.5,98.0,-0.9,-0.4,1.08,GOOD
1790979681883,150,1771.0,-224.43193561537942,-78.0,93.5,98.0,-0.9,-0.4,1.08,GOOD
1790979681884,151,1822.0,-255.78375542797855,32000.0,93.5,98.0,-0.9,-0.4,1.08,GOOD
1790979681884,152,1904.0,-247.75365311969716,32000.0,93.5,98.0,-0.9,-0.4,1.08,GOOD
1790979681884,153,1959.0,-200.80296751884757,32000.0,93.5,98.0,-0.9,-0.4,1.08,GOOD
1790979681884,154,1925.0,-130.15005744500561,32000.0,93.5,98.0,-0.9,-0.4,1.08,GOOD
1790979681884,155,2009.0,-59.861994075111895,32000.0,93.5,98.0,-0.9,-0.4,1.08,GOOD
1790979681884,156,1994.0,-8.5615810931484,32000.0,93.5,98.0,-0.9,-0.4,1.08,GOOD
1790979681884,157,1979.0,16.30607628949177,32000.0,93.5,98.0,-0.9,-0.4,1.08,GOOD
1790979681884,158,1935.0,15.081828837170706,32000.0,93.5,98.0,-0.9,-0.4,1.08,GOOD
1790979681884,159,2005.0,0.5414223150846622,32000.0,93.5,98.0,-0.9,-0.4,1.08,GOOD
1790979681884,160,1978.0,-7.609000618071569,32000.0,93.5,98.0,-0.9,-0.4,1.08,GOOD
1790979681884,161,1857.0,-9.189972145940667,32000.0,93.5,98.0,-0.9,-0.4,1.08,GOOD
1790979681884,162,1761.0,-29.688587564112552,32000.0,93.5,98.0,-0.9,-0.4,1.08,GOOD
1790979681884,163,1874.0,-78.94164475758392,32000.0,93.5,98.0,-0.9,-0.4,1.08,GOOD
1790979681884,164,1946.0,-123.59012417352324,32000.0,93.5,98.0,-0.9,-0.4,1.08,GOOD
1790979681884,165,2106.0,-120.91893284668174,32000.0,93.5,98.0,-0.9,-0.4,1.08,GOOD
1790979681884,166,2105.0,-61.24119073346451,32000.0,93.5,98.0,-0.9,-0.4,1.08,GOOD
1790979681884,167,2110.0,27.88032493617727,32000.0,93.5,98.0,-0.9,-0.4,1.08,GOOD
1790979681884,168,2080.0,106.58405460353433,32000.0,93.5,98.0,-0.9,-0.4,1.08,GOOD
1790979681884,169,2038.0,147.51991053011363,32000.0,93.5,98.0,-0.9,-0.4,1.08,GOOD
1790979681884,170,1926.0,138.413158068866,32000.0,93.5,98.0,-0.9,-0.4,1.08,GOOD
1790979681884,171,1822.0,78.04462033626943,32000.0,93.5,98.0,-0.9,-0.4,1.08,GOOD
1790979681884,172,2028.0,-7.292744721488404,32000.0,93.5,98.0,-0.9,-0.4,1.08,GOOD
1790979681884,173,2046.0,-60.57318642796048,32000.0,93.5,98.0,-0.9,-0.4,1.08,GOOD
1790979681884,174,2114.0,-45.745087755833715,32000.0,93.5,98.0,-0.9,-0.4,1.08,GOOD
1790979681884,175,2098.0,17.3605248729757,32000.0,93.5,98.0,-0.9,-0.4,1.08,GOOD
1790979681884,176,2083.0,84.27273003471497,32000.0,93.5,98.0,-0.9,-0.4,1.08,GOOD
1790979681884,177,2086.0,124.77143399766256,32000.0,93.5,98.0,-0.9,-0.4,1.08,GOOD
1790979681884,178,2081.0,133.99192777630128,32000.0,93.5,98.0,-0.9,-0.4,1.08,GOOD
1790979681884,179,2078.0,121.95966229488262,32000.0,93.5,98.0,-0.9,-0.4,1.08,GOOD
1790979681884,180,2100.0,102.24045655900731,32000.0,93.5,98.0,-0.9,-0.4,1.08,GOOD
1790979681884,181,2051.0,86.9346139418399,32000.0,93.5,98.0,-0.9,-0.4,1.08,GOOD
1790979681884,182,2102.0,81.56448531356808,32000.0,93.5,98.0,-0.9,-0.4,1.08,GOOD
1790979681884,183,2075.0,84.96727210956702,32000.0,93.5,98.0,-0.9,-0.4,1.08,GOOD
1790979681884,184,2045.0,88.71993792480716,32000.0,93.5,98.0,-0.9,-0.4,1.08,GOOD
1790979681884,185,2079.0,83.28680317577985,32000.0,93.5,98.0,-0.9,-0.4,1.08,GOOD
1790979681884,186,2078.0,72.72828760630634,32000.0,93.5,98.0,-0.9,-0.4,1.08,GOOD
1790979681884,187,1984.0,64.86044322077137,32000.0,93.5,98.0,-0.9,-0.4,1.08,GOOD
1790979681884,188,2083.0,57.15269684712814,32000.0,93.5,98.0,-0.9,-0.4,1.08,GOOD
1790979681884,189,2087.0,50.90720545848602,32000.0,93.5,98.0,-0.9,-0.4,1.08,GOOD
1790979681884,190,2080.0,52.774247679955224,32000.0,93.5,98.0,-0.9,-0.4,1.08,GOOD
1790979681884,191,2021.0,58.8731834614191,32000.0,93.5,98.0,-0.9,-0.4,1.08,GOOD
1790979681884,192,2090.0,61.86344036938212,32000.0,93.5,98.0,-0.9,-0.4,1.08,GOOD
1790979681884,193,2089.0,64.45310915831405,32000.0,93.5,98.0,-0.9,-0.4,1.08,GOOD
1790979681884,194,2067.0,69.08223345812283,32000.0,93.5,98.0,-0.9,-0.4,1.08,GOOD
1790979681884,195,2087.0,70.1273380698137,32000.0,93.5,98.0,-0.9,-0.4,1.08,GOOD
1790979681884,196,2103.0,68.16921260277603,32000.0,93.5,98.0,-0.9,-0.4,1.08,GOOD
1790979681884,197,2089.0,71.45298550321908,32000.0,93.5,98.0,-0.9,-0.4,1.08,GOOD
1790979681884,198,2104.0,80.4336464312162,32000.0,93.5,98.0,-0.9,-0.4,1.08,GOOD
1790979681884,199,2092.0,86.93853401512672,32000.0,93.5,98.0,-0.9,-0.4,1.08,GOOD
1790979681884,200,2087.0,85.07035458104528,32000.0,93.5,98.0,-0.9,-0.4,1.08,GOOD
1790979682043,201,2057.0,76.04196358206069,32000.0,96.3,98.0,-0.9,-0.3,1.08,GOOD
1790979682043,202,1964.0,60.93148991727045,32000.0,96.3,98.0,-0.9,-0.3,1.08,GOOD
1790979682043,203,1881.0,31.43957040194609,32000.0,96.3,98.0,-0.9,-0.3,1.08,GOOD
1790979682043,204,1880.0,-20.01383249358036,32000.0,96.3,98.0,-0.9,-0.3,1.08,GOOD
1790979682043,205,1744.0,-87.70709415248777,32000.0,96.3,98.0,-0.9,-0.3,1.08,GOOD
1790979682043,206,1815.0,-157.22569170024903,32000.0,96.3,98.0,-0.9,-0.3,1.08,GOOD
1790979682043,207,1810.0,-208.11502228423518,32000.0,96.3,98.0,-0.9,-0.3,1.08,GOOD
1790979682043,208,1809.0,-225.71075680905005,32000.0,96.3,98.0,-0.9,-0.3,1.08,GOOD
1790979682043,209,1814.0,-217.48719788573098,32000.0,96.3,98.0,-0.9,-0.3,1.08,GOOD
1790979682043,210,1933.0,-196.57781034948698,32000.0,96.3,98.0,-0.9,-0.3,1.08,GOOD
1790979682043,211,2039.0,-158.8666780783317,32000.0,96.3,98.0,-0.9,-0.3,1.08,GOOD
1790979682043,212,2001.0,-98.35521265254987,32000.0,96.3,98.0,-0.9,-0.3,1.08,GOOD
1790979682043,213,1956.0,-34.09425343010912,32000.0,96.3,98.0,-0.9,-0.3,1.08,GOOD
1790979682043,214,1845.0,-0.532532071550964,32000.0,96.3,98.0,-0.9,-0.3,1.08,GOOD
1790979682043,215,1864.0,-15.323711651611031,32000.0,96.3,98.0,-0.9,-0.3,1.08,GOOD
1790979682043,216,1844.0,-64.61743484358176,32000.0,96.3,98.0,-0.9,-0.3,1.08,GOOD
1790979682043,217,1920.0,-115.6700810494395,32000.0,96.3,98.0,-0.9,-0.3,1.08,GOOD
1790979682043,218,2026.0,-135.13675177412398,32000.0,96.3,98.0,-0.9,-0.3,1.08,GOOD
1790979682043,219,2049.0,-104.26691760163904,32000.0,96.3,98.0,-0.9,-0.3,1.08,GOOD
1790979682043,220,2009.0,-37.1302239901325,32000.0,96.3,98.0,-0.9,-0.3,1.08,GOOD
1790979682043,221,1985.0,25.14827586898227,32000.0,96.3,98.0,-0.9,-0.3,1.08,GOOD
1790979682043,222,1895.0,46.8249969238184,32000.0,96.3,98.0,-0.9,-0.3,1.08,GOOD
1790979682043,223,1935.0,21.474461838114223,32000.0,96.3,98.0,-0.9,-0.3,1.08,GOOD
1790979682043,224,2437.0,-6.060454782558967,32000.0,96.3,98.0,-0.9,-0.3,1.08,GOOD
1790979682043,225,2482.0,43.33669914193069,32000.0,96.3,98.0,-0.9,-0.3,1.08,GOOD
1790979682189,226,2606.0,194.04861848460945,32000.0,96.3,98.0,-1.0,-0.3,1.08,GOOD
1790979682189,227,2593.0,386.2647692697397,32000.0,96.3,98.0,-1.0,-0.3,1.08,GOOD
1790979682189,228,2540.0,542.2549929819821,32000.0,96.3,98.0,-1.0,-0.3,1.08,GOOD
1790979682189,229,2480.0,612.8015372160153,32000.0,96.3,98.0,-1.0,-0.3,1.08,GOOD
1790979682189,230,1407.0,549.0895133504553,32000.0,96.3,98.0,-1.0,-0.3,1.08,GOOD
1790979682189,231,1445.0,295.58851068580816,32000.0,96.3,98.0,-1.0,-0.3,1.08,GOOD
1790979682189,232,1431.0,-93.99133431836624,32000.0,96.3,98.0,-1.0,-0.3,1.08,GOOD
1790979682189,233,1399.0,-450.15487528745416,32000.0,96.3,98.0,-1.0,-0.3,1.08,GOOD
1790979682189,234,1375.0,-660.8613826260121,32000.0,96.3,98.0,-1.0,-0.3,1.08,GOOD
1790979682189,235,1645.0,-717.4489568968997,32000.0,96.3,98.0,-1.0,-0.3,1.08,GOOD
1790979682189,236,1955.0,-631.3831376113301,32000.0,96.3,98.0,-1.0,-0.3,1.08,GOOD
1790979682189,237,1925.0,-430.5750802510933,32000.0,96.3,98.0,-1.0,-0.3,1.08,GOOD
1790979682189,238,1881.0,-205.1334090893308,32000.0,96.3,98.0,-1.0,-0.3,1.08,GOOD
1790979682189,239,1871.0,-59.26137725608286,32000.0,96.3,98.0,-1.0,-0.3,1.08,GOOD
1790979682189,240,2030.0,-14.945943953111415,32000.0,96.3,98.0,-1.0,-0.3,1.08,GOOD
1790979682189,241,1961.0,-16.427587148601823,32000.0,96.3,98.0,-1.0,-0.3,1.08,GOOD
1790979682189,242,2015.0,-15.263079543068637,32000.0,96.3,98.0,-1.0,-0.3,1.08,GOOD
1790979682189,243,2003.0,-4.484631116923625,32000.0,96.3,98.0,-1.0,-0.3,1.08,GOOD
1790979682189,244,1890.0,4.011431001197876,32000.0,96.3,98.0,-1.0,-0.3,1.08,GOOD
1790979682189,245,1970.0,-0.5628526781541154,32000.0,96.3,98.0,-1.0,-0.3,1.08,GOOD
1790979682189,246,1967.0,-12.47663730361004,32000.0,96.3,98.0,-1.0,-0.3,1.08,GOOD
1790979682189,247,2050.0,-15.840252658309861,32000.0,96.3,98.0,-1.0,-0.3,1.08,GOOD
1790979682189,248,2151.0,0.6491696151037982,32000.0,96.3,98.0,-1.0,-0.3,1.08,GOOD
1790979682189,249,2241.0,46.28158566208873,32000.0,96.3,98.0,-1.0,-0.3,1.08,GOOD
1790979682189,250,2258.0,121.64348706462131,32000.0,96.3,98.0,-1.0,-0.3,1.08,GOOD
1790979682190,251,2236.0,205.47023099908657,32000.0,96.3,98.0,-1.0,-0.3,1.08,GOOD
1790979682190,252,2081.0,258.4474280841948,32000.0,96.3,98.0,-1.0,-0.3,1.08,GOOD
1790979682190,253,2156.0,252.13929228557632,32000.0,96.3,98.0,-1.0,-0.3,1.08,GOOD
1790979682190,254,2191.0,203.86671682055643,32000.0,96.3,98.0,-1.0,-0.3,1.08,GOOD
1790979682190,255,2234.0,162.40902896941589,32000.0,96.3,98.0,-1.0,-0.3,1.08,GOOD
1790979682190,256,2225.0,157.16381727368872,32000.0,96.3,98.0,-1.0,-0.3,1.08,GOOD
1790979682190,257,2153.0,177.74306307845796,32000.0,96.3,98.0,-1.0,-0.3,1.08,GOOD
1790979682190,258,2204.0,195.9584936205891,32000.0,96.3,98.0,-1.0,-0.3,1.08,GOOD
1790979682190,259,2130.0,195.60313409669308,32000.0,96.3,98.0,-1.0,-0.3,1.08,GOOD
1790979682190,260,2207.0,178.83448638467002,32000.0,96.3,98.0,-1.0,-0.3,1.08,GOOD
1790979682190,261,2237.0,161.31852490573806,32000.0,96.3,98.0,-1.0,-0.3,1.08,GOOD
1790979682190,262,2272.0,162.19966513394007,32000.0,96.3,98.0,-1.0,-0.3,1.08,GOOD
1790979682190,263,2266.0,185.40586154245966,32000.0,96.3,98.0,-1.0,-0.3,1.08,GOOD
1790979682190,264,2268.0,216.71135556231462,32000.0,96.3,98.0,-1.0,-0.3,1.08,GOOD
1790979682190,265,2296.0,239.686609698425,32000.0,96.3,98.0,-1.0,-0.3,1.08,GOOD
1790979682190,266,2297.0,249.16727351003735,32000.0,96.3,98.0,-1.0,-0.3,1.08,GOOD
1790979682190,267,2311.0,250.10540579434306,32000.0,96.3,98.0,-1.0,-0.3,1.08,GOOD
1790979682190,268,2335.0,250.68501496786627,32000.0,96.3,98.0,-1.0,-0.3,1.08,GOOD
1790979682190,269,2347.0,257.25414737277197,32000.0,96.3,98.0,-1.0,-0.3,1.08,GOOD
1790979682190,270,2383.0,270.2990686858474,32000.0,96.3,98.0,-1.0,-0.3,1.08,GOOD
1790979682190,271,2381.0,285.61918436106464,32000.0,96.3,98.0,-1.0,-0.3,1.08,GOOD
1790979682190,272,2400.0,298.77731183893684,32000.0,96.3,98.0,-1.0,-0.3,1.08,GOOD
1790979682190,273,2395.0,308.16733882402514,32000.0,96.3,98.0,-1.0,-0.3,1.08,GOOD
1790979682190,274,2413.0,314.45951745383474,32000.0,96.3,98.0,-1.0,-0.3,1.08,GOOD
1790979682190,275,2417.0,317.96488784171163,32000.0,96.3,98.0,-1.0,-0.3,1.08,GOOD
1790979682353,276,2372.0,316.16085494377717,32000.0,96.3,98.0,-0.9,-0.4,1.08,GOOD
1790979682353,277,2295.0,301.94184847124654,32000.0,96.3,98.0,-0.9,-0.4,1.08,GOOD
1790979682353,278,2233.0,268.13659835059894,32000.0,96.3,98.0,-0.9,-0.4,1.08,GOOD
1790979682353,279,2096.0,211.69827592220835,32000.0,96.3,98.0,-0.9,-0.4,1.08,GOOD
1790979682353,280,2241.0,140.1089141662799,32000.0,96.3,98.0,-0.9,-0.4,1.08,GOOD
1790979682353,281,2200.0,79.02317739206647,32000.0,96.3,98.0,-0.9,-0.4,1.08,GOOD
1790979682353,282,2205.0,50.36408649919727,32000.0,96.3,98.0,-0.9,-0.4,1.08,GOOD
1790979682353,283,2117.0,47.880071534613876,32000.0,96.3,98.0,-0.9,-0.4,1.08,GOOD
1790979682353,284,2117.0,49.6092169876299,32000.0,96.3,98.0,-0.9,-0.4,1.08,GOOD
1790979682353,285,2145.0,41.41502811820277,32000.0,96.3,98.0,-0.9,-0.4,1.08,GOOD
1790979682353,286,2216.0,27.26171467783475,32000.0,96.3,98.0,-0.9,-0.4,1.08,GOOD
1790979682353,287,2242.0,22.68765792430272,32000.0,96.3,98.0,-0.9,-0.4,1.08,GOOD
1790979682353,288,2224.0,38.2728691193336,32000.0,96.3,98.0,-0.9,-0.4,1.08,GOOD
1790979682353,289,2043.0,61.668703433964296,32000.0,96.3,98.0,-0.9,-0.4,1.08,GOOD
1790979682353,290,1946.0,56.42655600912322,32000.0,96.3,98.0,-0.9,-0.4,1.08,GOOD
1790979682353,291,2043.0,1.3508399174202506,32000.0,96.3,98.0,-0.9,-0.4,1.08,GOOD
1790979682353,292,2025.0,-76.84463724892275,32000.0,96.3,98.0,-0.9,-0.4,1.08,GOOD
1790979682353,293,2027.0,-134.25936852055835,32000.0,96.3,98.0,-0.9,-0.4,1.08,GOOD
1790979682353,294,2052.0,-149.40943424412671,32000.0,96.3,98.0,-0.9,-0.4,1.08,GOOD
1790979682353,295,2072.0,-125.89410142855124,32000.0,96.3,98.0,-0.9,-0.4,1.08,GOOD
1790979682353,296,2042.0,-87.24532709230594,32000.0,96.3,98.0,-0.9,-0.4,1.08,GOOD
1790979682353,297,2019.0,-65.14141259839772,32000.0,96.3,98.0,-0.9,-0.4,1.08,GOOD
1790979682353,298,2015.0,-72.9744896420126,32000.0,96.3,98.0,-0.9,-0.4,1.08,GOOD
1790979682353,299,2011.0,-95.48450819847463,32000.0,96.3,98.0,-0.9,-0.4,1.08,GOOD
1790979682353,300,2021.0,-110.46291428582731,32000.0,96.3,98.0,-0.9,-0.4,1.08,GOOD
1790979682630,301,2013.0,-112.6054661233656,32000.0,96.3,98.0,-0.9,-0.3,1.08,GOOD
1790979682630,302,2012.0,-111.9253564622312,32000.0,96.3,98.0,-0.9,-0.3,1.08,GOOD
1790979682630,303,2030.0,-114.57778281281882,32000.0,96.3,98.0,-0.9,-0.3,1.08,GOOD
1790979682630,304,2027.0,-114.1997227839845,32000.0,96.3,98.0,-0.9,-0.3,1.08,GOOD
1790979682630,305,2034.0,-104.68507624943456,32000.0,96.3,98.0,-0.9,-0.3,1.08,GOOD
1790979682630,306,2001.0,-92.72494180090142,32000.0,96.3,98.0,-0.9,-0.3,1.08,GOOD
1790979682630,307,1950.0,-93.38396831133434,32000.0,96.3,98.0,-0.9,-0.3,1.08,GOOD
1790979682630,308,2018.0,-110.94436754392174,32000.0,96.3,98.0,-0.9,-0.3,1.08,GOOD
1790979682630,309,2006.0,-128.57668478293226,32000.0,96.3,98.0,-0.9,-0.3,1.08,GOOD
1790979682630,310,1942.0,-132.6204470740223,32000.0,96.3,98.0,-0.9,-0.3,1.08,GOOD
1790979682630,311,2010.0,-130.19355623078934,32000.0,96.3,98.0,-0.9,-0.3,1.08,GOOD
1790979682630,312,2005.0,-128.32560723875775,32000.0,96.3,98.0,-0.9,-0.3,1.08,GOOD
1790979682630,313,1896.0,-128.69161705912535,32000.0,96.3,98.0,-0.9,-0.3,1.08,GOOD
1790979682630,314,1910.0,-139.12188887813625,32000.0,96.3,98.0,-0.9,-0.3,1.08,GOOD
1790979682630,315,1898.0,-160.94932958244928,32000.0,96.3,98.0,-0.9,-0.3,1.08,GOOD
1790979682630,316,1884.0,-184.69916616755484,32000.0,96.3,98.0,-0.9,-0.3,1.08,GOOD
1790979682630,317,1891.0,-204.1907482075822,32000.0,96.3,98.0,-0.9,-0.3,1.08,GOOD
1790979682630,318,1867.0,-217.5379716644401,32000.0,96.3,98.0,-0.9,-0.3,1.08,GOOD
1790979682630,319,1885.0,-222.69174169350612,32000.0,96.3,98.0,-0.9,-0.3,1.08,GOOD
1790979682630,320,1865.0,-219.605190800422,32000.0,96.3,98.0,-0.9,-0.3,1.08,GOOD
1790979682630,321,1826.0,-215.26516362014456,32000.0,96.3,98.0,-0.9,-0.3,1.08,GOOD
1790979682630,322,1803.0,-221.19775330981204,32000.0,96.3,98.0,-0.9,-0.3,1.08,GOOD
1790979682630,323,1859.0,-237.79321004676316,32000.0,96.3,98.0,-0.9,-0.3,1.08,GOOD
1790979682630,324,2098.0,-240.03781046041954,32000.0,96.3,98.0,-0.9,-0.3,1.08,GOOD
1790979682630,325,2099.0,-195.21307174193493,32000.0,96.3,98.0,-0.9,-0.3,1.08,GOOD
1790979682631,326,2112.0,-107.0727792751976,32000.0,96.3,98.0,-0.9,-0.3,1.08,GOOD
1790979682631,327,2002.0,-20.461615280656716,32000.0,96.3,98.0,-0.9,-0.3,1.08,GOOD
1790979682631,328,2058.0,24.248801207681087,32000.0,96.3,98.0,-0.9,-0.3,1.08,GOOD
1790979682631,329,2036.0,23.158017605875674,32000.0,96.3,98.0,-0.9,-0.3,1.08,GOOD
1790979682631,330,1923.0,-7.826469269794714,32000.0,96.3,98.0,-0.9,-0.3,1.08,GOOD
1790979682631,331,2035.0,-53.027042430986164,32000.0,96.3,98.0,-0.9,-0.3,1.08,GOOD
1790979682631,332,2065.0,-85.36278366464946,32000.0,96.3,98.0,-0.9,-0.3,1.08,GOOD
1790979682631,333,2053.0,-80.65314724626111,32000.0,96.3,98.0,-0.9,-0.3,1.08,GOOD
1790979682631,334,2001.0,-51.370662040556944,32000.0,96.3,98.0,-0.9,-0.3,1.08,GOOD
1790979682631,335,2039.0,-29.571672023920875,32000.0,96.3,98.0,-0.9,-0.3,1.08,GOOD
1790979682631,336,2060.0,-26.043066135156664,32000.0,96.3,98.0,-0.9,-0.3,1.08,GOOD
1790979682631,337,2061.0,-27.86929646461026,32000.0,96.3,98.0,-0.9,-0.3,1.08,GOOD
1790979682631,338,2082.0,-23.121141153003638,32000.0,96.3,98.0,-0.9,-0.3,1.08,GOOD
1790979682631,339,2083.0,-11.211677515707065,32000.0,96.3,98.0,-0.9,-0.3,1.08,GOOD
1790979682631,340,2050.0,0.6872033860033517,32000.0,96.3,98.0,-0.9,-0.3,1.08,GOOD
1790979682631,341,2044.0,3.7744838318921294,32000.0,96.3,98.0,-0.9,-0.3,1.08,GOOD
1790979682631,342,2029.0,-4.126738889436881,32000.0,96.3,98.0,-0.9,-0.3,1.08,GOOD
1790979682631,343,2034.0,-17.70222634682177,32000.0,96.3,98.0,-0.9,-0.3,1.08,GOOD
1790979682631,344,1999.0,-31.933152571578,32000.0,96.3,98.0,-0.9,-0.3,1.08,GOOD
1790979682631,345,2050.0,-44.16362777587321,32000.0,96.3,98.0,-0.9,-0.3,1.08,GOOD
1790979682631,346,2047.0,-49.00876492275262,32000.0,96.3,98.0,-0.9,-0.3,1.08,GOOD
1790979682631,347,2048.0,-42.646390920159206,32000.0,96.3,98.0,-0.9,-0.3,1.08,GOOD
1790979682631,348,2049.0,-30.017108816244804,32000.0,96.3,98.0,-0.9,-0.3,1.08,GOOD
1790979682631,349,2067.0,-18.65296465832074,32000.0,96.3,98.0,-0.9,-0.3,1.08,GOOD
1790979682631,350,2052.0,-11.709334094014782,32000.0,96.3,98.0,-0.9,-0.3,1.08,GOOD
1790979682809,351,2052.0,-9.487935375146938,-7.0,96.3,98.0,-1.0,-0.4,1.08,GOOD
1790979682809,352,2050.0,-10.78295185445738,-4.0,96.3,98.0,-1.0,-0.4,1.08,GOOD
1790979682809,353,1998.0,-15.239162290437315,3.0,96.3,98.0,-1.0,-0.4,1.08,GOOD
1790979682809,354,1968.0,-27.270948901802626,6.0,96.3,98.0,-1.0,-0.4,1.08,GOOD
1790979682809,355,1887.0,-52.97563041240426,4.0,96.3,98.0,-1.0,-0.4,1.08,GOOD
1790979682809,356,1854.0,-93.9175029665738,4.0,96.3,98.0,-1.0,-0.4,1.08,GOOD
1790979682809,357,1971.0,-138.0666757166324,5.0,96.3,98.0,-1.0,-0.4,1.08,GOOD
1790979682809,358,2002.0,-159.19414252642315,3.0,96.3,98.0,-1.0,-0.4,1.08,GOOD
1790979682809,359,1998.0,-143.36465923594292,6.0,96.3,98.0,-1.0,-0.4,1.08,GOOD
1790979682809,360,2062.0,-102.53933026105186,5.0,96.3,98.0,-1.0,-0.4,1.08,GOOD
1790979682809,361,2060.0,-54.196081004132246,2.0,96.3,98.0,-1.0,-0.4,1.08,GOOD
1790979682809,362,2036.0,-12.693678584713272,2.0,96.3,98.0,-1.0,-0.4,1.08,GOOD
1790979682809,363,1920.0,3.4592382044055956,-1.0,96.3,98.0,-1.0,-0.4,1.08,GOOD
1790979682809,364,2048.0,-13.760525961700406,-2.0,96.3,98.0,-1.0,-0.4,1.08,GOOD
1790979682809,365,2026.0,-42.26935169282847,1.0,96.3,98.0,-1.0,-0.4,1.08,GOOD
1790979682809,366,2029.0,-54.08306755520378,0.0,96.3,98.0,-1.0,-0.4,1.08,GOOD
1790979682809,367,2055.0,-45.46617394570733,0.0,96.3,98.0,-1.0,-0.4,1.08,GOOD
1790979682809,368,2055.0,-26.528690421943224,-3.0,96.3,98.0,-1.0,-0.4,1.08,GOOD
1790979682809,369,2042.0,-7.796348920188181,-6.0,96.3,98.0,-1.0,-0.4,1.08,GOOD
1790979682809,370,2404.0,16.39351850004965,-11.0,96.3,98.0,-1.0,-0.4,1.08,GOOD
1790979682809,371,2445.0,77.8422161124037,-14.0,96.3,98.0,-1.0,-0.4,1.08,GOOD
1790979682809,372,2459.0,187.29578332542272,-17.0,96.3,98.0,-1.0,-0.4,1.08,GOOD
1790979682809,373,2494.0,307.4616868366071,-18.0,96.3,98.0,-1.0,-0.4,1.08,GOOD
1790979682809,374,2640.0,403.6990392809713,-21.0,96.3,98.0,-1.0,-0.4,1.08,GOOD
1790979682809,375,2793.0,479.1444364855306,-28.0,96.3,98.0,-1.0,-0.4,1.08,GOOD
1790979682810,376,2880.0,553.1874020041461,32000.0,96.3,98.0,-1.0,-0.4,1.08,GOOD
1790979682810,377,2852.0,630.9175897052066,32000.0,96.3,98.0,-1.0,-0.4,1.08,GOOD
1790979682810,378,2702.0,693.1134624580549,32000.0,96.3,98.0,-1.0,-0.4,1.08,GOOD
1790979682810,379,2353.0,697.9918141508922,32000.0,96.3,98.0,-1.0,-0.4,1.08,GOOD
1790979682810,380,1702.0,581.4290593323581,32000.0,96.3,98.0,-1.0,-0.4,1.08,GOOD
1790979682810,381,1638.0,301.63833535115293,32000.0,96.3,98.0,-1.0,-0.4,1.08,GOOD
1790979682810,382,1640.0,-75.5952257373155,32000.0,96.3,98.0,-1.0,-0.4,1.08,GOOD
1790979682810,383,1752.0,-397.1155899129158,32000.0,96.3,98.0,-1.0,-0.4,1.08,GOOD
1790979682810,384,1949.0,-544.1148235015067,32000.0,96.3,98.0,-1.0,-0.4,1.08,GOOD
1790979682810,385,2071.0,-496.3514839021226,32000.0,96.3,98.0,-1.0,-0.4,1.08,GOOD
1790979682810,386,2076.0,-322.0474972116913,32000.0,96.3,98.0,-1.0,-0.4,1.08,GOOD
1790979682810,387,2006.0,-134.77101123294827,32000.0,96.3,98.0,-1.0,-0.4,1.08,GOOD
1790979682810,388,1982.0,-26.302532643921296,32000.0,96.3,98.0,-1.0,-0.4,1.08,GOOD
1790979682810,389,1993.0,-16.67366584251231,32000.0,96.3,98.0,-1.0,-0.4,1.08,GOOD
1790979682810,390,2004.0,-62.81907416640453,32000.0,96.3,98.0,-1.0,-0.4,1.08,GOOD
1790979682810,391,2021.0,-109.03320682376133,32000.0,96.3,98.0,-1.0,-0.4,1.08,GOOD
1790979682810,392,2037.0,-125.49087891567179,32000.0,96.3,98.0,-1.0,-0.4,1.08,GOOD
1790979682810,393,2032.0,-113.25870364822315,32000.0,96.3,98.0,-1.0,-0.4,1.08,GOOD
1790979682810,394,2044.0,-89.48200773740686,32000.0,96.3,98.0,-1.0,-0.4,1.08,GOOD
1790979682810,395,2020.0,-70.31775758675266,32000.0,96.3,98.0,-1.0,-0.4,1.08,GOOD
1790979682810,396,2026.0,-63.02382505914924,32000.0,96.3,98.0,-1.0,-0.4,1.08,GOOD
1790979682810,397,2033.0,-65.50198080814829,32000.0,96.3,98.0,-1.0,-0.4,1.08,GOOD
1790979682810,398,2071.0,-69.08555272208253,32000.0,96.3,98.0,-1.0,-0.4,1.08,GOOD
1790979682810,399,2078.0,-65.16924278855424,32000.0,96.3,98.0,-1.0,-0.4,1.08,GOOD
1790979682810,400,2068.0,-52.58329390491553,32000.0,96.3,98.0,-1.0,-0.4,1.08,GOOD
1790979683108,401,2060.0,-38.13940534712797,32000.0,96.3,98.0,-1.0,-0.3,1.08,GOOD
1790979683108,402,2058.0,-29.2802202963327,32000.0,96.3,98.0,-1.0,-0.3,1.08,GOOD
1790979683108,403,2069.0,-28.172196154534014,32000.0,96.3,98.0,-1.0,-0.3,1.08,GOOD
1790979683108,404,2091.0,-31.073328755828843,32000.0,96.3,98.0,-1.0,-0.3,1.08,GOOD
1790979683108,405,2104.0,-30.89572481039567,32000.0,96.3,98.0,-1.0,-0.3,1.08,GOOD
1790979683108,406,2120.0,-22.22472221014173,32000.0,96.3,98.0,-1.0,-0.3,1.08,GOOD
1790979683108,407,2121.0,-5.642608879937795,32000.0,96.3,98.0,-1.0,-0.3,1.08,GOOD
1790979683108,408,2127.0,12.242954393785709,32000.0,96.3,98.0,-1.0,-0.3,1.08,GOOD
1790979683108,409,2139.0,24.463119969082356,32000.0,96.3,98.0,-1.0,-0.3,1.08,GOOD
1790979683108,410,2120.0,29.0117413690313,32000.0,96.3,98.0,-1.0,-0.3,1.08,GOOD
1790979683108,411,2153.0,29.069505558214914,32000.0,96.3,98.0,-1.0,-0.3,1.08,GOOD
1790979683108,412,2167.0,31.349329930081623,32000.0,96.3,98.0,-1.0,-0.3,1.08,GOOD
1790979683108,413,2209.0,41.510609957876596,32000.0,96.3,98.0,-1.0,-0.3,1.08,GOOD
1790979683108,414,2213.0,59.40858967447794,32000.0,96.3,98.0,-1.0,-0.3,1.08,GOOD
1790979683108,415,2216.0,79.75173611581792,32000.0,96.3,98.0,-1.0,-0.3,1.08,GOOD
1790979683108,416,2234.0,97.29095623089546,32000.0,96.3,98.0,-1.0,-0.3,1.08,GOOD
1790979683108,417,2229.0,110.37578903867669,32000.0,96.3,98.0,-1.0,-0.3,1.08,GOOD
1790979683108,418,2166.0,115.36023400505997,32000.0,96.3,98.0,-1.0,-0.3,1.08,GOOD
1790979683108,419,2129.0,103.51610351163266,32000.0,96.3,98.0,-1.0,-0.3,1.08,GOOD
1790979683108,420,2184.0,75.34592719568593,32000.0,96.3,98.0,-1.0,-0.3,1.08,GOOD
1790979683108,421,2313.0,53.72920258949032,32000.0,96.3,98.0,-1.0,-0.3,1.08,GOOD
1790979683108,422,2291.0,64.54693708777721,32000.0,96.3,98.0,-1.0,-0.3,1.08,GOOD
1790979683108,423,2311.0,104.91885041195187,32000.0,96.3,98.0,-1.0,-0.3,1.08,GOOD
1790979683108,424,2238.0,147.26219721995707,32000.0,96.3,98.0,-1.0,-0.3,1.08,GOOD
1790979683108,425,2126.0,162.27802378070868,32000.0,96.3,98.0,-1.0,-0.3,1.08,GOOD
1790979683109,426,2144.0,134.70750698015877,32000.0,96.3,98.0,-1.0,-0.3,1.08,GOOD
1790979683109,427,2262.0,81.71200061992583,32000.0,96.3,98.0,-1.0,-0.3,1.08,GOOD
1790979683109,428,2347.0,47.80923317433295,32000.0,96.3,98.0,-1.0,-0.3,1.08,GOOD
1790979683109,429,2290.0,61.5086348201743,32000.0,96.3,98.0,-1.0,-0.3,1.08,GOOD
1790979683109,430,2258.0,106.77778229256731,32000.0,96.3,98.0,-1.0,-0.3,1.08,GOOD
1790979683109,431,2238.0,145.64546848279792,32000.0,96.3,98.0,-1.0,-0.3,1.08,GOOD
1790979683109,432,2191.0,151.8758027457735,32000.0,96.3,98.0,-1.0,-0.3,1.08,GOOD
1790979683109,433,2156.0,119.76176393853596,32000.0,96.3,98.0,-1.0,-0.3,1.08,GOOD
1790979683109,434,2146.0,63.731086633778155,32000.0,96.3,98.0,-1.0,-0.3,1.08,GOOD
1790979683109,435,2120.0,11.111273990221704,32000.0,96.3,98.0,-1.0,-0.3,1.08,GOOD
1790979683109,436,2085.0,-20.464639464510036,32000.0,96.3,98.0,-1.0,-0.3,1.08,GOOD
1790979683109,437,2044.0,-37.83447054244856,32000.0,96.3,98.0,-1.0,-0.3,1.08,GOOD
1790979683109,438,2002.0,-60.10556661124655,32000.0,96.3,98.0,-1.0,-0.3,1.08,GOOD
1790979683109,439,2021.0,-94.13676786354219,32000.0,96.3,98.0,-1.0,-0.3,1.08,GOOD
1790979683109,440,2016.0,-126.2187217186364,32000.0,96.3,98.0,-1.0,-0.3,1.08,GOOD
1790979683109,441,1992.0,-141.64017989182767,32000.0,96.3,98.0,-1.0,-0.3,1.08,GOOD
1790979683109,442,1963.0,-144.64309889973214,32000.0,96.3,98.0,-1.0,-0.3,1.08,GOOD
1790979683109,443,1963.0,-150.03732901041337,32000.0,96.3,98.0,-1.0,-0.3,1.08,GOOD
1790979683109,444,1968.0,-162.69652410682409,32000.0,96.3,98.0,-1.0,-0.3,1.08,GOOD
1790979683109,445,1955.0,-174.922562552444,32000.0,96.3,98.0,-1.0,-0.3,1.08,GOOD
1790979683109,446,1942.0,-180.28996618248513,32000.0,96.3,98.0,-1.0,-0.3,1.08,GOOD
1790979683109,447,1938.0,-181.18703424033808,32000.0,96.3,98.0,-1.0,-0.3,1.08,GOOD
1790979683109,448,1950.0,-182.61696145971663,32000.0,96.3,98.0,-1.0,-0.3,1.08,GOOD
1790979683109,449,1960.0,-184.48827677689354,32000.0,96.3,98.0,-1.0,-0.3,1.08,GOOD
1790979683109,450,1947.0,-183.04930565190728,32000.0,96.3,98.0,-1.0,-0.3,1.08,GOOD
1790979683869,451,1937.0,-177.81343485302523,-75.0,96.3,98.0,-1.1,-0.4,1.08,GOOD
1790979683869,452,1939.0,-172.68502395442903,-77.0,96.3,98.0,-1.1,-0.4,1.08,GOOD
1790979683869,453,1902.0,-172.53238275099204,-78.0,96.3,98.0,-1.1,-0.4,1.08,GOOD
1790979683869,454,1867.0,-181.97895757017093,-78.0,96.3,98.0,-1.1,-0.4,1.08,GOOD
1790979683869,455,1872.0,-201.06384416321083,-77.0,96.3,98.0,-1.1,-0.4,1.08,GOOD
1790979683869,456,1727.0,-226.89535537172716,-80.0,96.3,98.0,-1.1,-0.4,1.08,GOOD
1790979683869,457,1832.0,-258.5925297924699,-78.0,96.3,98.0,-1.1,-0.4,1.08,GOOD
1790979683869,458,2843.0,-246.31580416884975,-79.0,96.3,98.0,-1.1,-0.4,1.08,GOOD
1790979683869,459,2625.0,-95.30295877033285,-76.0,96.3,98.0,-1.1,-0.4,1.08,GOOD
1790979683869,460,2284.0,165.3803369508572,-76.0,96.3,98.0,-1.1,-0.4,1.08,GOOD
1790979683869,461,1992.0,356.1171931361676,-74.0,96.3,98.0,-1.1,-0.4,1.08,GOOD
1790979683869,462,1760.0,346.8593255247471,-74.0,96.3,98.0,-1.1,-0.4,1.08,GOOD
1790979683869,463,1953.0,159.35636458485655,-72.0,96.3,98.0,-1.1,-0.4,1.08,GOOD
1790979683869,464,2007.0,-82.55117409893919,-72.0,96.3,98.0,-1.1,-0.4,1.08,GOOD
1790979683869,465,2014.0,-248.28637244009118,-72.0,96.3,98.0,-1.1,-0.4,1.08,GOOD
1790979683869,466,2089.0,-274.47298965446345,-72.0,96.3,98.0,-1.1,-0.4,1.08,GOOD
1790979683869,467,2123.0,-176.85394746359754,-73.0,96.3,98.0,-1.1,-0.4,1.08,GOOD
1790979683869,468,2082.0,-37.35718793614816,-74.0,96.3,98.0,-1.1,-0.4,1.08,GOOD
1790979683869,469,2038.0,42.272410574564276,-75.0,96.3,98.0,-1.1,-0.4,1.08,GOOD
1790979683869,470,1997.0,22.498200955779478,-75.0,96.3,98.0,-1.1,-0.4,1.08,GOOD
1790979683869,471,1987.0,-46.83888921936408,-75.0,96.3,98.0,-1.1,-0.4,1.08,GOOD
1790979683869,472,2021.0,-92.26656534465829,-75.0,96.3,98.0,-1.1,-0.4,1.08,GOOD
1790979683869,473,2025.0,-92.95111875027897,-74.0,96.3,98.0,-1.1,-0.4,1.08,GOOD
1790979683869,474,2021.0,-82.75409344580349,-76.0,96.3,98.0,-1.1,-0.4,1.08,GOOD
1790979683869,475,1938.0,-92.98846380197884,-75.0,96.3,98.0,-1.1,-0.4,1.08,GOOD
1790979683870,476,2043.0,-111.91946764876039,32000.0,96.3,98.0,-1.1,-0.4,1.08,GOOD
1790979683870,477,2067.0,-104.08545219385039,32000.0,96.3,98.0,-1.1,-0.4,1.08,GOOD
1790979683870,478,2046.0,-66.13158287156674,32000.0,96.3,98.0,-1.1,-0.4,1.08,GOOD
1790979683870,479,2032.0,-37.552233382942006,32000.0,96.3,98.0,-1.1,-0.4,1.08,GOOD
1790979683870,480,2039.0,-42.742940452080596,32000.0,96.3,98.0,-1.1,-0.4,1.08,GOOD
1790979683870,481,2080.0,-57.29639316263176,32000.0,96.3,98.0,-1.1,-0.4,1.08,GOOD
1790979683870,482,2048.0,-48.79213831742963,32000.0,96.3,98.0,-1.1,-0.4,1.08,GOOD
1790979683870,483,2062.0,-24.218654139374706,32000.0,96.3,98.0,-1.1,-0.4,1.08,GOOD
1790979683870,484,2110.0,-12.246378394866543,32000.0,96.3,98.0,-1.1,-0.4,1.08,GOOD
1790979683870,485,2087.0,-17.332969607673466,32000.0,96.3,98.0,-1.1,-0.4,1.08,GOOD
1790979683870,486,2090.0,-19.28336706206357,32000.0,96.3,98.0,-1.1,-0.4,1.08,GOOD
1790979683870,487,1991.0,-8.947926664404555,32000.0,96.3,98.0,-1.1,-0.4,1.08,GOOD
1790979683870,488,2106.0,-1.1045396960089304,32000.0,96.3,98.0,-1.1,-0.4,1.08,GOOD
1790979683870,489,2085.0,-7.54693058250804,32000.0,96.3,98.0,-1.1,-0.4,1.08,GOOD
1790979683870,490,2033.0,-22.79034186697994,32000.0,96.3,98.0,-1.1,-0.4,1.08,GOOD
1790979683870,491,2131.0,-32.35560588428532,32000.0,96.3,98.0,-1.1,-0.4,1.08,GOOD
1790979683870,492,2159.0,-18.098448664673917,32000.0,96.3,98.0,-1.1,-0.4,1.08,GOOD
1790979683870,493,2172.0,20.669655449914323,32000.0,96.3,98.0,-1.1,-0.4,1.08,GOOD
1790979683870,494,2191.0,59.52029636370478,32000.0,96.3,98.0,-1.1,-0.4,1.08,GOOD
1790979683870,495,2183.0,80.39860732555866,32000.0,96.3,98.0,-1.1,-0.4,1.08,GOOD
1790979683870,496,2070.0,84.38559167989479,32000.0,96.3,98.0,-1.1,-0.4,1.08,GOOD
1790979683870,497,2235.0,79.67875300754254,32000.0,96.3,98.0,-1.1,-0.4,1.08,GOOD
1790979683870,498,2229.0,79.70401987817709,32000.0,96.3,98.0,-1.1,-0.4,1.08,GOOD
1790979683870,499,2256.0,91.58039253896993,32000.0,96.3,98.0,-1.1,-0.4,1.08,GOOD
1790979683870,500,2259.0,109.70866161172455,32000.0,96.3,98.0,-1.1,-0.4,1.08,GOOD
1790979684738,501,2296.0,132.76581205579203,-17.0,94.1,98.0,-1.0,-0.3,1.08,GOOD
1790979684738,502,2303.0,163.16036067885662,-15.0,94.1,98.0,-1.0,-0.3,1.08,GOOD
1790979684738,503,2307.0,191.792521058489,-14.0,94.1,98.0,-1.0,-0.3,1.08,GOOD
1790979684738,504,2298.0,203.42743938157662,-15.0,94.1,98.0,-1.0,-0.3,1.08,GOOD
1790979684738,505,2336.0,197.539594031868,-14.0,94.1,98.0,-1.0,-0.3,1.08,GOOD
1790979684738,506,2217.0,187.07834321494255,-14.0,94.1,98.0,-1.0,-0.3,1.08,GOOD
1790979684738,507,2309.0,177.93579038620717,-14.0,94.1,98.0,-1.0,-0.3,1.08,GOOD
1790979684738,508,2273.0,168.98650565381894,-13.0,94.1,98.0,-1.0,-0.3,1.08,GOOD
1790979684738,509,2277.0,158.75218768506716,-13.0,94.1,98.0,-1.0,-0.3,1.08,GOOD
1790979684738,510,2265.0,146.30537549636588,-15.0,94.1,98.0,-1.0,-0.3,1.08,GOOD
1790979684738,511,2215.0,134.54767262123943,-14.0,94.1,98.0,-1.0,-0.3,1.08,GOOD
1790979684738,512,2120.0,120.20155759694232,-13.0,94.1,98.0,-1.0,-0.3,1.08,GOOD
1790979684738,513,2068.0,88.4908081300751,-14.0,94.1,98.0,-1.0,-0.3,1.08,GOOD
1790979684738,514,2082.0,33.59681603979412,-14.0,94.1,98.0,-1.0,-0.3,1.08,GOOD
1790979684738,515,2092.0,-26.078296161587023,-13.0,94.1,98.0,-1.0,-0.3,1.08,GOOD
1790979684738,516,2077.0,-64.83513867930823,-15.0,94.1,98.0,-1.0,-0.3,1.08,GOOD
1790979684738,517,2037.0,-76.05713756718049,-15.0,94.1,98.0,-1.0,-0.3,1.08,GOOD
1790979684738,518,1963.0,-76.9270972501628,-13.0,94.1,98.0,-1.0,-0.3,1.08,GOOD
1790979684738,519,1751.0,-98.16578138835197,-13.0,94.1,98.0,-1.0,-0.3,1.08,GOOD
1790979684738,520,1403.0,-176.8697539071019,-12.0,94.1,98.0,-1.0,-0.3,1.08,GOOD
1790979684738,521,1164.0,-339.86618164177145,-13.0,94.1,98.0,-1.0,-0.3,1.08,GOOD
1790979684738,522,2010.0,-534.2755461776917,-12.0,94.1,98.0,-1.0,-0.3,1.08,GOOD
1790979684738,523,2003.0,-614.2460539935912,-12.0,94.1,98.0,-1.0,-0.3,1.08,GOOD
1790979684738,524,2075.0,-504.77671087269766,-14.0,94.1,98.0,-1.0,-0.3,1.08,GOOD
1790979684738,525,2184.0,-282.7039778126464,-14.0,94.1,98.0,-1.0,-0.3,1.08,GOOD
1790979684739,526,2373.0,-48.53926438618319,32000.0,94.1,98.0,-1.0,-0.3,1.08,GOOD
1790979684739,527,2745.0,159.50599794643358,32000.0,94.1,98.0,-1.0,-0.3,1.08,GOOD
1790979684739,528,2712.0,337.93563906098285,32000.0,94.1,98.0,-1.0,-0.3,1.08,GOOD
1790979684739,529,2769.0,477.60515895882577,32000.0,94.1,98.0,-1.0,-0.3,1.08,GOOD
1790979684739,530,2767.0,573.2708571440223,32000.0,94.1,98.0,-1.0,-0.3,1.08,GOOD
1790979684739,531,2636.0,632.9386480242372,32000.0,94.1,98.0,-1.0,-0.3,1.08,GOOD
1790979684739,532,2424.0,638.4345195267732,32000.0,94.1,98.0,-1.0,-0.3,1.08,GOOD
1790979684739,533,2131.0,544.3603348635559,32000.0,94.1,98.0,-1.0,-0.3,1.08,GOOD
1790979684739,534,1917.0,338.41560518591996,32000.0,94.1,98.0,-1.0,-0.3,1.08,GOOD
1790979684739,535,1745.0,74.16935850277929,32000.0,94.1,98.0,-1.0,-0.3,1.08,GOOD
1790979684739,536,1947.0,-158.69585231595406,32000.0,94.1,98.0,-1.0,-0.3,1.08,GOOD
1790979684739,537,1950.0,-290.6740867126738,32000.0,94.1,98.0,-1.0,-0.3,1.08,GOOD
1790979684739,538,1991.0,-316.1008467735568,32000.0,94.1,98.0,-1.0,-0.3,1.08,GOOD
1790979684739,539,2097.0,-272.7331609714256,32000.0,94.1,98.0,-1.0,-0.3,1.08,GOOD
1790979684739,540,2085.0,-189.46080341806606,32000.0,94.1,98.0,-1.0,-0.3,1.08,GOOD
1790979684739,541,2051.0,-93.73914433013381,32000.0,94.1,98.0,-1.0,-0.3,1.08,GOOD
1790979684739,542,2004.0,-32.06949434180091,32000.0,94.1,98.0,-1.0,-0.3,1.08,GOOD
1790979684739,543,1982.0,-37.29533918948487,32000.0,94.1,98.0,-1.0,-0.3,1.08,GOOD
1790979684739,544,2037.0,-90.14935390453013,32000.0,94.1,98.0,-1.0,-0.3,1.08,GOOD
1790979684739,545,1922.0,-138.89458265794087,32000.0,94.1,98.0,-1.0,-0.3,1.08,GOOD
1790979684739,546,2007.0,-155.60356861909224,32000.0,94.1,98.0,-1.0,-0.3,1.08,GOOD
1790979684739,547,1855.0,-155.24156531639227,32000.0,94.1,98.0,-1.0,-0.3,1.08,GOOD
1790979684739,548,2009.0,-164.52731238014826,32000.0,94.1,98.0,-1.0,-0.3,1.08,GOOD
1790979684739,549,2043.0,-178.40135932545513,32000.0,94.1,98.0,-1.0,-0.3,1.08,GOOD
1790979684739,550,2055.0,-166.35863250966815,32000.0,94.1,98.0,-1.0,-0.3,1.08,GOOD
1790979684740,551,2034.0,-123.1444242644131,32000.0,94.1,98.0,-1.0,-0.3,1.08,GOOD
1790979684740,552,2011.0,-78.52999988922421,32000.0,94.1,98.0,-1.0,-0.3,1.08,GOOD
1790979684740,553,2038.0,-60.90660436900936,32000.0,94.1,98.0,-1.0,-0.3,1.08,GOOD
1790979684740,554,2050.0,-68.88684329475126,32000.0,94.1,98.0,-1.0,-0.3,1.08,GOOD
1790979684740,555,2055.0,-79.50531035877239,32000.0,94.1,98.0,-1.0,-0.3,1.08,GOOD
1790979684740,556,2013.0,-78.47134705733684,32000.0,94.1,98.0,-1.0,-0.3,1.08,GOOD
1790979684740,557,1997.0,-73.41767869502226,32000.0,94.1,98.0,-1.0,-0.3,1.08,GOOD
1790979684740,558,2054.0,-75.79762921545759,32000.0,94.1,98.0,-1.0,-0.3,1.08,GOOD
1790979684740,559,2094.0,-79.69556004699902,32000.0,94.1,98.0,-1.0,-0.3,1.08,GOOD
1790979684740,560,2101.0,-70.47935310630794,32000.0,94.1,98.0,-1.0,-0.3,1.08,GOOD
1790979684740,561,2097.0,-46.132711390563976,32000.0,94.1,98.0,-1.0,-0.3,1.08,GOOD
1790979684740,562,2131.0,-17.286655848940036,32000.0,94.1,98.0,-1.0,-0.3,1.08,GOOD
1790979684740,563,2134.0,6.5631102960039,32000.0,94.1,98.0,-1.0,-0.3,1.08,GOOD
1790979684740,564,2144.0,21.893309204851473,32000.0,94.1,98.0,-1.0,-0.3,1.08,GOOD
1790979684740,565,2147.0,29.490387985881853,32000.0,94.1,98.0,-1.0,-0.3,1.08,GOOD
1790979684740,566,2183.0,34.6802422094106,32000.0,94.1,98.0,-1.0,-0.3,1.08,GOOD
1790979684740,567,2043.0,38.62451690936538,32000.0,94.1,98.0,-1.0,-0.3,1.08,GOOD
1790979684740,568,2239.0,37.087419923772195,32000.0,94.1,98.0,-1.0,-0.3,1.08,GOOD
1790979684740,569,2235.0,40.05083807405748,32000.0,94.1,98.0,-1.0,-0.3,1.08,GOOD
1790979684740,570,2255.0,61.24892188022663,32000.0,94.1,98.0,-1.0,-0.3,1.08,GOOD
1790979684740,571,2262.0,94.33715593708183,32000.0,94.1,98.0,-1.0,-0.3,1.08,GOOD
1790979684740,572,2244.0,125.2928696813255,32000.0,94.1,98.0,-1.0,-0.3,1.08,GOOD
1790979684740,573,2286.0,146.7303917385191,32000.0,94.1,98.0,-1.0,-0.3,1.08,GOOD
1790979684740,574,2311.0,158.5156208278034,32000.0,94.1,98.0,-1.0,-0.3,1.08,GOOD
1790979684740,575,2323.0,164.8838705558999,32000.0,94.1,98.0,-1.0,-0.3,1.08,GOOD
1790979684880,576,2329.0,170.3332727219793,32000.0,94.1,98.0,-0.9,-0.3,1.08,GOOD
1790979684880,577,2308.0,178.1813981494218,32000.0,94.1,98.0,-0.9,-0.3,1.08,GOOD
1790979684880,578,2333.0,188.05765162181427,32000.0,94.1,98.0,-0.9,-0.3,1.08,GOOD
1790979684880,579,2334.0,195.57456995287436,32000.0,94.1,98.0,-0.9,-0.3,1.08,GOOD
1790979684880,580,2324.0,195.3386090434925,32000.0,94.1,98.0,-0.9,-0.3,1.08,GOOD
1790979684880,581,2337.0,186.82284531730835,32000.0,94.1,98.0,-0.9,-0.3,1.08,GOOD
1790979684880,582,2309.0,177.45498593521026,32000.0,94.1,98.0,-0.9,-0.3,1.08,GOOD
1790979684880,583,2271.0,171.65210317310732,32000.0,94.1,98.0,-0.9,-0.3,1.08,GOOD
1790979684880,584,2193.0,159.61720024655807,32000.0,94.1,98.0,-0.9,-0.3,1.08,GOOD
1790979684880,585,2159.0,126.42088256324963,32000.0,94.1,98.0,-0.9,-0.3,1.08,GOOD
1790979684880,586,2132.0,72.00765431455096,32000.0,94.1,98.0,-0.9,-0.3,1.08,GOOD
1790979684880,587,2096.0,14.022732882486316,32000.0,94.1,98.0,-0.9,-0.3,1.08,GOOD
1790979684880,588,2077.0,-30.51007434526588,32000.0,94.1,98.0,-0.9,-0.3,1.08,GOOD
1790979684880,589,2028.0,-59.83922931614589,32000.0,94.1,98.0,-0.9,-0.3,1.08,GOOD
1790979684880,590,1897.0,-88.97353262496898,32000.0,94.1,98.0,-0.9,-0.3,1.08,GOOD
1790979684880,591,1828.0,-137.79064285102163,32000.0,94.1,98.0,-0.9,-0.3,1.08,GOOD
1790979684880,592,1889.0,-204.78759392142456,32000.0,94.1,98.0,-0.9,-0.3,1.08,GOOD
1790979684880,593,1973.0,-257.9067976458243,32000.0,94.1,98.0,-0.9,-0.3,1.08,GOOD
1790979684880,594,2038.0,-264.8412499930352,32000.0,94.1,98.0,-0.9,-0.3,1.08,GOOD
1790979684880,595,2004.0,-225.947291759714,32000.0,94.1,98.0,-0.9,-0.3,1.08,GOOD
1790979684880,596,2001.0,-170.59579231022244,32000.0,94.1,98.0,-0.9,-0.3,1.08,GOOD
1790979684880,597,1818.0,-134.64837322603665,32000.0,94.1,98.0,-0.9,-0.3,1.08,GOOD
1790979684880,598,1926.0,-140.59117924050577,32000.0,94.1,98.0,-0.9,-0.3,1.08,GOOD
1790979684880,599,1940.0,-177.3441620381351,32000.0,94.1,98.0,-0.9,-0.3,1.08,GOOD
1790979684880,600,1970.0,-210.60421846533396,32000.0,94.1,98.0,-0.9,-0.3,1.08,GOOD
1790979685036,601,1969.0,-217.41653829738007,32000.0,94.1,98.0,-0.9,-0.3,1.07,GOOD
1790979685036,602,1928.0,-197.88392825440374,32000.0,94.1,98.0,-0.9,-0.3,1.07,GOOD
1790979685036,603,1898.0,-170.7510886564498,32000.0,94.1,98.0,-0.9,-0.3,1.07,GOOD
1790979685036,604,1939.0,-158.50288196055757,32000.0,94.1,98.0,-0.9,-0.3,1.07,GOOD
1790979685036,605,1847.0,-169.9346011218522,32000.0,94.1,98.0,-0.9,-0.3,1.07,GOOD
1790979685036,606,1960.0,-195.41187152863716,32000.0,94.1,98.0,-0.9,-0.3,1.07,GOOD
1790979685036,607,1942.0,-209.49726975933146,32000.0,94.1,98.0,-0.9,-0.3,1.07,GOOD
1790979685036,608,1942.0,-195.50020351213027,32000.0,94.1,98.0,-0.9,-0.3,1.07,GOOD
1790979685036,609,1936.0,-167.09672073909178,32000.0,94.1,98.0,-0.9,-0.3,1.07,GOOD
1790979685036,610,1950.0,-147.64287632950044,32000.0,94.1,98.0,-0.9,-0.3,1.07,GOOD
1790979685036,611,1964.0,-142.74726448595726,32000.0,94.1,98.0,-0.9,-0.3,1.07,GOOD
1790979685036,612,1838.0,-146.19757724333022,32000.0,94.1,98.0,-0.9,-0.3,1.07,GOOD
1790979685036,613,1946.0,-154.95480999076736,32000.0,94.1,98.0,-0.9,-0.3,1.07,GOOD
1790979685036,614,1949.0,-162.26897772038174,32000.0,94.1,98.0,-0.9,-0.3,1.07,GOOD
1790979685036,615,1991.0,-158.3671138811348,32000.0,94.1,98.0,-0.9,-0.3,1.07,GOOD
1790979685036,616,1995.0,-142.0775028928054,32000.0,94.1,98.0,-0.9,-0.3,1.07,GOOD
1790979685036,617,1990.0,-117.2345346615059,32000.0,94.1,98.0,-0.9,-0.3,1.07,GOOD
1790979685036,618,1968.0,-90.62404113425305,32000.0,94.1,98.0,-0.9,-0.3,1.07,GOOD
1790979685036,619,1684.0,-84.80947725189655,32000.0,94.1,98.0,-0.9,-0.3,1.07,GOOD
1790979685036,620,1606.0,-135.91602386724972,32000.0,94.1,98.0,-0.9,-0.3,1.07,GOOD
1790979685036,621,1645.0,-246.29571094944498,32000.0,94.1,98.0,-0.9,-0.3,1.07,GOOD
1790979685036,622,1597.0,-364.76371881568423,32000.0,94.1,98.0,-0.9,-0.3,1.07,GOOD
1790979685036,623,1649.0,-439.9287507080794,32000.0,94.1,98.0,-0.9,-0.3,1.07,GOOD
1790979685036,624,1814.0,-451.1487475954177,32000.0,94.1,98.0,-0.9,-0.3,1.07,GOOD
1790979685036,625,1932.0,-394.5097936306959,32000.0,94.1,98.0,-0.9,-0.3,1.07,GOOD
1790979685037,626,1963.0,-285.8710793168412,32000.0,94.1,98.0,-0.9,-0.3,1.07,GOOD
1790979685037,627,1975.0,-165.18342609387034,32000.0,94.1,98.0,-0.9,-0.3,1.07,GOOD
1790979685037,628,1902.0,-74.97507708583109,32000.0,94.1,98.0,-0.9,-0.3,1.07,GOOD
1790979685037,629,1908.0,-37.74755180704926,32000.0,94.1,98.0,-0.9,-0.3,1.07,GOOD
1790979685037,630,1938.0,-46.45509607303755,32000.0,94.1,98.0,-0.9,-0.3,1.07,GOOD
1790979685037,631,1978.0,-71.67904352858032,32000.0,94.1,98.0,-0.9,-0.3,1.07,GOOD
1790979685037,632,2026.0,-82.8559864132585,32000.0,94.1,98.0,-0.9,-0.3,1.07,GOOD
1790979685037,633,2049.0,-64.45361984585122,32000.0,94.1,98.0,-0.9,-0.3,1.07,GOOD
1790979685037,634,2038.0,-22.131458509266466,32000.0,94.1,98.0,-0.9,-0.3,1.07,GOOD
1790979685037,635,2029.0,21.382110077810935,32000.0,94.1,98.0,-0.9,-0.3,1.07,GOOD
1790979685037,636,2008.0,43.301565105532504,32000.0,94.1,98.0,-0.9,-0.3,1.07,GOOD
1790979685037,637,2006.0,37.57873688131103,32000.0,94.1,98.0,-0.9,-0.3,1.07,GOOD
1790979685037,638,2001.0,16.857161824669195,32000.0,94.1,98.0,-0.9,-0.3,1.07,GOOD
1790979685037,639,2014.0,-0.3611765371340814,32000.0,94.1,98.0,-0.9,-0.3,1.07,GOOD
1790979685037,640,2042.0,-3.6207287917182627,32000.0,94.1,98.0,-0.9,-0.3,1.07,GOOD
1790979685037,641,2035.0,5.38323972679016,32000.0,94.1,98.0,-0.9,-0.3,1.07,GOOD
1790979685037,642,2033.0,17.55525468503251,32000.0,94.1,98.0,-0.9,-0.3,1.07,GOOD
1790979685037,643,2017.0,25.50706596956663,32000.0,94.1,98.0,-0.9,-0.3,1.07,GOOD
1790979685037,644,1935.0,24.792725547235765,32000.0,94.1,98.0,-0.9,-0.3,1.07,GOOD
1790979685037,645,2001.0,12.22081124891955,32000.0,94.1,98.0,-0.9,-0.3,1.07,GOOD
1790979685037,646,2009.0,-5.813316497517334,32000.0,94.1,98.0,-0.9,-0.3,1.07,GOOD
1790979685037,647,1981.0,-17.90578431841525,32000.0,94.1,98.0,-0.9,-0.3,1.07,GOOD
1790979685037,648,2001.0,-20.78026947465908,32000.0,94.1,98.0,-0.9,-0.3,1.07,GOOD
1790979685037,649,2025.0,-14.102585634790048,32000.0,94.1,98.0,-0.9,-0.3,1.07,GOOD
1790979685037,650,2043.0,2.592012655598014,32000.0,94.1,98.0,-0.9,-0.3,1.07,GOOD
1790979685184,651,2023.0,21.974038029942896,32000.0,93.2,98.0,-0.9,-0.3,1.08,GOOD
1790979685184,652,2026.0,32.6419109010871,32000.0,93.2,98.0,-0.9,-0.3,1.08,GOOD
1790979685184,653,2028.0,32.73428831884141,32000.0,93.2,98.0,-0.9,-0.3,1.08,GOOD
1790979685184,654,2009.0,29.89618036546665,32000.0,93.2,98.0,-0.9,-0.3,1.08,GOOD
1790979685184,655,2012.0,28.060343627016916,32000.0,93.2,98.0,-0.9,-0.3,1.08,GOOD
1790979685184,656,2041.0,25.590571818117645,32000.0,93.2,98.0,-0.9,-0.3,1.08,GOOD
1790979685184,657,1992.0,21.653345035003987,32000.0,93.2,98.0,-0.9,-0.3,1.08,GOOD
1790979685184,658,2037.0,17.610607086622508,32000.0,93.2,98.0,-0.9,-0.3,1.08,GOOD
1790979685184,659,2017.0,17.84478211235532,32000.0,93.2,98.0,-0.9,-0.3,1.08,GOOD
1790979685184,660,1957.0,21.313507169291633,32000.0,93.2,98.0,-0.9,-0.3,1.08,GOOD
1790979685184,661,1958.0,16.05736676131057,32000.0,93.2,98.0,-0.9,-0.3,1.08,GOOD
1790979685184,662,1970.0,-2.8165799103903826,32000.0,93.2,98.0,-0.9,-0.3,1.08,GOOD
1790979685184,663,1955.0,-24.200348632237297,32000.0,93.2,98.0,-0.9,-0.3,1.08,GOOD
1790979685184,664,1931.0,-37.558935683058024,32000.0,93.2,98.0,-0.9,-0.3,1.08,GOOD
1790979685184,665,1922.0,-43.80295246913486,32000.0,93.2,98.0,-0.9,-0.3,1.08,GOOD
1790979685184,666,1931.0,-48.58598842052358,32000.0,93.2,98.0,-0.9,-0.3,1.08,GOOD
1790979685184,667,1858.0,-56.8848140352104,32000.0,93.2,98.0,-0.9,-0.3,1.08,GOOD
1790979685184,668,2034.0,-66.37611431887287,32000.0,93.2,98.0,-0.9,-0.3,1.08,GOOD
1790979685184,669,2071.0,-57.8383754789213,32000.0,93.2,98.0,-0.9,-0.3,1.08,GOOD
1790979685184,670,2059.0,-17.805156727595236,32000.0,93.2,98.0,-0.9,-0.3,1.08,GOOD
1790979685184,671,2046.0,35.69796027921494,32000.0,93.2,98.0,-0.9,-0.3,1.08,GOOD
1790979685184,672,2000.0,72.90998649798985,32000.0,93.2,98.0,-0.9,-0.3,1.08,GOOD
1790979685184,673,1976.0,78.19492451670416,32000.0,93.2,98.0,-0.9,-0.3,1.08,GOOD
1790979685184,674,2001.0,55.728591335321084,32000.0,93.2,98.0,-0.9,-0.3,1.08,GOOD
1790979685184,675,2017.0,25.40896930726999,32000.0,93.2,98.0,-0.9,-0.3,1.08,GOOD
1790979685625,676,1904.0,3.327476300353144,42.0,93.2,98.0,-0.9,-0.3,1.07,GOOD
1790979685625,677,2042.0,-8.274881760554486,49.0,93.2,98.0,-0.9,-0.3,1.07,GOOD
1790979685625,678,2016.0,-5.897367614747474,45.0,93.2,98.0,-0.9,-0.3,1.07,GOOD
1790979685625,679,2022.0,10.953300730553988,49.0,93.2,98.0,-0.9,-0.3,1.07,GOOD
1790979685625,680,2035.0,29.92868521667941,47.0,93.2,98.0,-0.9,-0.3,1.07,GOOD
1790979685625,681,2040.0,43.16818889758538,44.0,93.2,98.0,-0.9,-0.3,1.07,GOOD
1790979685625,682,2028.0,52.828337901199795,42.0,93.2,98.0,-0.9,-0.3,1.07,GOOD
1790979685625,683,2018.0,58.74937787274151,39.0,93.2,98.0,-0.9,-0.3,1.07,GOOD
1790979685625,684,2070.0,58.9645360317806,36.0,93.2,98.0,-0.9,-0.3,1.07,GOOD
1790979685625,685,2107.0,59.609111908158255,33.0,93.2,98.0,-0.9,-0.3,1.07,GOOD
1790979685625,686,2122.0,71.55214697858592,30.0,93.2,98.0,-0.9,-0.3,1.07,GOOD
1790979685625,687,2130.0,97.0000701439113,27.0,93.2,98.0,-0.9,-0.3,1.07,GOOD
1790979685625,688,2224.0,130.28334989779503,27.0,93.2,98.0,-0.9,-0.3,1.07,GOOD
1790979685625,689,2419.0,174.5153886699111,28.0,93.2,98.0,-0.9,-0.3,1.07,GOOD
1790979685625,690,2551.0,245.72526133745987,22.0,93.2,98.0,-0.9,-0.3,1.07,GOOD
1790979685625,691,2836.0,359.42178524506386,19.0,93.2,98.0,-0.9,-0.3,1.07,GOOD
1790979685625,692,2862.0,516.5234939508003,12.0,93.2,98.0,-0.9,-0.3,1.07,GOOD
1790979685625,693,2777.0,682.4292341364437,5.0,93.2,98.0,-0.9,-0.3,1.07,GOOD
1790979685625,694,2375.0,779.9472800158292,0.0,93.2,98.0,-0.9,-0.3,1.07,GOOD
1790979685625,695,2368.0,741.3277252736815,2.0,93.2,98.0,-0.9,-0.3,1.07,GOOD
1790979685625,696,2020.0,570.9804852764341,-1.0,93.2,98.0,-0.9,-0.3,1.07,GOOD
1790979685625,697,1704.0,319.27423084536974,-2.0,93.2,98.0,-0.9,-0.3,1.07,GOOD
1790979685625,698,1456.0,27.931065889643953,-8.0,93.2,98.0,-0.9,-0.3,1.07,GOOD
1790979685625,699,2011.0,-236.2077507262461,-14.0,93.2,98.0,-0.9,-0.3,1.07,GOOD
1790979685625,700,1931.0,-368.93757563361225,-22.0,93.2,98.0,-0.9,-0.3,1.07,GOOD
1790979685627,701,1818.0,-344.19561282607253,32000.0,93.2,98.0,-0.9,-0.3,1.07,GOOD
1790979685627,702,1785.0,-253.73779413275122,32000.0,93.2,98.0,-0.9,-0.3,1.07,GOOD
1790979685627,703,1797.0,-186.33865422594982,32000.0,93.2,98.0,-0.9,-0.3,1.07,GOOD
1790979685627,704,1896.0,-160.39250347760057,32000.0,93.2,98.0,-0.9,-0.3,1.07,GOOD
1790979685627,705,2017.0,-154.77872444704678,32000.0,93.2,98.0,-0.9,-0.3,1.07,GOOD
1790979685627,706,2109.0,-138.34063028792002,32000.0,93.2,98.0,-0.9,-0.3,1.07,GOOD
1790979685627,707,2012.0,-91.17456525089987,32000.0,93.2,98.0,-0.9,-0.3,1.07,GOOD
1790979685627,708,1992.0,-24.700758226046847,32000.0,93.2,98.0,-0.9,-0.3,1.07,GOOD
1790979685627,709,1980.0,26.485054413213835,32000.0,93.2,98.0,-0.9,-0.3,1.07,GOOD
1790979685627,710,1900.0,30.97353900025915,32000.0,93.2,98.0,-0.9,-0.3,1.07,GOOD
1790979685627,711,1956.0,-16.117981629775223,32000.0,93.2,98.0,-0.9,-0.3,1.07,GOOD
1790979685627,712,1848.0,-82.36129642713593,32000.0,93.2,98.0,-0.9,-0.3,1.07,GOOD
1790979685627,713,1787.0,-130.233850664484,32000.0,93.2,98.0,-0.9,-0.3,1.07,GOOD
1790979685627,714,1883.0,-151.43200354954664,32000.0,93.2,98.0,-0.9,-0.3,1.07,GOOD
1790979685627,715,1884.0,-156.17635060704083,32000.0,93.2,98.0,-0.9,-0.3,1.07,GOOD
1790979685627,716,1874.0,-156.9650916617481,32000.0,93.2,98.0,-0.9,-0.3,1.07,GOOD
1790979685627,717,1730.0,-163.11275700295127,32000.0,93.2,98.0,-0.9,-0.3,1.07,GOOD
1790979685627,718,1773.0,-175.31988804971212,32000.0,93.2,98.0,-0.9,-0.3,1.07,GOOD
1790979685627,719,1778.0,-187.03161792854524,32000.0,93.2,98.0,-0.9,-0.3,1.07,GOOD
1790979685627,720,1940.0,-191.43027039162328,32000.0,93.2,98.0,-0.9,-0.3,1.07,GOOD
1790979685627,721,1994.0,-179.3169867168586,32000.0,93.2,98.0,-0.9,-0.3,1.07,GOOD
1790979685627,722,2035.0,-137.30358422602865,32000.0,93.2,98.0,-0.9,-0.3,1.07,GOOD
1790979685627,723,2078.0,-61.02427518900535,32000.0,93.2,98.0,-0.9,-0.3,1.07,GOOD
1790979685627,724,2174.0,34.87369802902051,32000.0,93.2,98.0,-0.9,-0.3,1.07,GOOD
1790979685627,725,2443.0,130.99880174908893,32000.0,93.2,98.0,-0.9,-0.3,1.07,GOOD
1790979685628,726,2434.0,222.76725727455292,32000.0,93.2,98.0,-0.9,-0.3,1.07,GOOD
1790979685628,727,2485.0,312.2811043937305,32000.0,93.2,98.0,-0.9,-0.3,1.07,GOOD
1790979685628,728,2470.0,396.9224272748044,32000.0,93.2,98.0,-0.9,-0.3,1.07,GOOD
1790979685628,729,2405.0,463.9597882532049,32000.0,93.2,98.0,-0.9,-0.3,1.07,GOOD
1790979685628,730,2371.0,485.29874785334124,32000.0,93.2,98.0,-0.9,-0.3,1.07,GOOD
1790979685628,731,2180.0,437.84344535386526,32000.0,93.2,98.0,-0.9,-0.3,1.07,GOOD
1790979685628,732,2163.0,332.35211521646215,32000.0,93.2,98.0,-0.9,-0.3,1.07,GOOD
1790979685628,733,2024.0,212.24451550014857,32000.0,93.2,98.0,-0.9,-0.3,1.07,GOOD
1790979685628,734,1993.0,113.53761475867674,32000.0,93.2,98.0,-0.9,-0.3,1.07,GOOD
1790979685628,735,1949.0,36.57797114282565,32000.0,93.2,98.0,-0.9,-0.3,1.07,GOOD
1790979685628,736,1933.0,-32.09173118205943,32000.0,93.2,98.0,-0.9,-0.3,1.07,GOOD
1790979685628,737,1970.0,-88.28933000001496,32000.0,93.2,98.0,-0.9,-0.3,1.07,GOOD
1790979685628,738,2001.0,-110.10858369966721,32000.0,93.2,98.0,-0.9,-0.3,1.07,GOOD
1790979685628,739,2024.0,-88.26663997236145,32000.0,93.2,98.0,-0.9,-0.3,1.07,GOOD
1790979685628,740,1935.0,-48.79566185947187,32000.0,93.2,98.0,-0.9,-0.3,1.07,GOOD
1790979685628,741,1771.0,-38.895589906745606,32000.0,93.2,98.0,-0.9,-0.3,1.07,GOOD
1790979685628,742,1792.0,-83.55365209313663,32000.0,93.2,98.0,-0.9,-0.3,1.07,GOOD
1790979685628,743,1842.0,-154.93633384983252,32000.0,93.2,98.0,-0.9,-0.3,1.07,GOOD
1790979685628,744,1759.0,-207.6259357761543,32000.0,93.2,98.0,-0.9,-0.3,1.07,GOOD
1790979685628,745,1859.0,-229.17312652073477,32000.0,93.2,98.0,-0.9,-0.3,1.07,GOOD
1790979685628,746,1841.0,-227.58326881278973,32000.0,93.2,98.0,-0.9,-0.3,1.07,GOOD
1790979685628,747,1808.0,-209.5788497900017,32000.0,93.2,98.0,-0.9,-0.3,1.07,GOOD
1790979685628,748,1691.0,-191.5757522132098,32000.0,93.2,98.0,-0.9,-0.3,1.07,GOOD
1790979685628,749,1598.0,-200.64069698087167,32000.0,93.2,98.0,-0.9,-0.3,1.07,GOOD
1790979685628,750,1677.0,-247.8516280379693,32000.0,93.2,98.0,-0.9,-0.3,1.07,GOOD
1790979685950,751,1769.0,-304.42626255506207,-34.0,88.7,98.0,-0.9,-0.3,1.08,GOOD
1790979685950,752,1815.0,-323.94119251290715,-34.0,88.7,98.0,-0.9,-0.3,1.08,GOOD
1790979685950,753,1867.0,-287.1084904889354,-37.0,88.7,98.0,-0.9,-0.3,1.08,GOOD
1790979685950,754,1822.0,-214.12286228674847,-40.0,88.7,98.0,-0.9,-0.3,1.08,GOOD
1790979685950,755,1880.0,-143.44071892490533,-39.0,88.7,98.0,-0.9,-0.3,1.08,GOOD
1790979685950,756,1915.0,-99.04969245104347,-40.0,88.7,98.0,-0.9,-0.3,1.08,GOOD
1790979685950,757,1892.0,-79.39719174530164,-44.0,88.7,98.0,-0.9,-0.3,1.08,GOOD
1790979685950,758,1644.0,-83.47741459219415,-46.0,88.7,98.0,-0.9,-0.3,1.08,GOOD
1790979685950,759,1641.0,-123.31986959811661,-43.0,88.7,98.0,-0.9,-0.3,1.08,GOOD
1790979685950,760,1600.0,-195.49151871459406,-42.0,88.7,98.0,-0.9,-0.3,1.08,GOOD
1790979685950,761,1700.0,-269.9606153260126,-42.0,88.7,98.0,-0.9,-0.3,1.08,GOOD
1790979685950,762,1931.0,-305.83838466927705,-44.0,88.7,98.0,-0.9,-0.3,1.08,GOOD
1790979685950,763,1977.0,-268.36610532019716,-43.0,88.7,98.0,-0.9,-0.3,1.08,GOOD
1790979685950,764,2043.0,-158.5307601354743,-48.0,88.7,98.0,-0.9,-0.3,1.08,GOOD
1790979685950,765,2101.0,-17.590723476281983,-46.0,88.7,98.0,-0.9,-0.3,1.08,GOOD
1790979685950,766,2145.0,106.25536328118551,-44.0,88.7,98.0,-0.9,-0.3,1.08,GOOD
1790979685950,767,2114.0,181.25040280120749,-43.0,88.7,98.0,-0.9,-0.3,1.08,GOOD
1790979685950,768,2099.0,200.38853969615153,-42.0,88.7,98.0,-0.9,-0.3,1.08,GOOD
1790979685950,769,2110.0,184.5939084376962,-42.0,88.7,98.0,-0.9,-0.3,1.08,GOOD
1790979685950,770,2107.0,166.35005566730007,-44.0,88.7,98.0,-0.9,-0.3,1.08,GOOD
1790979685950,771,2069.0,158.8665524790544,-43.0,88.7,98.0,-0.9,-0.3,1.08,GOOD
1790979685950,772,2044.0,149.24980324567417,-42.0,88.7,98.0,-0.9,-0.3,1.08,GOOD
1790979685950,773,2061.0,126.58178676454133,-43.0,88.7,98.0,-0.9,-0.3,1.08,GOOD
1790979685950,774,1959.0,98.1554642645314,-35.0,88.7,98.0,-0.9,-0.3,1.08,GOOD
1790979685950,775,1882.0,69.14756399415782,-36.0,88.7,98.0,-0.9,-0.3,1.08,GOOD
1790979685951,776,1903.0,33.00227348674265,32000.0,88.7,98.0,-0.9,-0.3,1.08,GOOD
1790979685951,777,1822.0,-13.628460443180803,32000.0,88.7,98.0,-0.9,-0.3,1.08,GOOD
1790979685951,778,1794.0,-67.43617235304893,32000.0,88.7,98.0,-0.9,-0.3,1.08,GOOD
1790979685951,779,1791.0,-118.25495745661996,32000.0,88.7,98.0,-0.9,-0.3,1.08,GOOD
1790979685951,780,1804.0,-149.29966768960293,32000.0,88.7,98.0,-0.9,-0.3,1.08,GOOD
1790979685951,781,1708.0,-157.8218359549034,32000.0,88.7,98.0,-0.9,-0.3,1.08,GOOD
1790979685951,782,1758.0,-163.00622248271867,32000.0,88.7,98.0,-0.9,-0.3,1.08,GOOD
1790979685951,783,1847.0,-173.281500646229,32000.0,88.7,98.0,-0.9,-0.3,1.08,GOOD
1790979685951,784,1873.0,-169.68308831049393,32000.0,88.7,98.0,-0.9,-0.3,1.08,GOOD
1790979685951,785,2022.0,-131.7570552186604,32000.0,88.7,98.0,-0.9,-0.3,1.08,GOOD
1790979685951,786,1979.0,-60.51752458637291,32000.0,88.7,98.0,-0.9,-0.3,1.08,GOOD
1790979685951,787,1880.0,12.322095804001732,32000.0,88.7,98.0,-0.9,-0.3,1.08,GOOD
1790979685951,788,1940.0,46.51603636884102,32000.0,88.7,98.0,-0.9,-0.3,1.08,GOOD
1790979685951,789,1986.0,40.630812497715056,32000.0,88.7,98.0,-0.9,-0.3,1.08,GOOD
1790979685951,790,1953.0,26.111939057489227,32000.0,88.7,98.0,-0.9,-0.3,1.08,GOOD
1790979685951,791,1978.0,22.39833601390339,32000.0,88.7,98.0,-0.9,-0.3,1.08,GOOD
1790979685951,792,2007.0,30.36562110137536,32000.0,88.7,98.0,-0.9,-0.3,1.08,GOOD
1790979685951,793,2078.0,49.75156374694741,32000.0,88.7,98.0,-0.9,-0.3,1.08,GOOD
1790979685951,794,2186.0,84.5838838997781,32000.0,88.7,98.0,-0.9,-0.3,1.08,GOOD
1790979685951,795,2265.0,139.77797647100243,32000.0,88.7,98.0,-0.9,-0.3,1.08,GOOD
1790979685951,796,2260.0,211.14050860277632,32000.0,88.7,98.0,-0.9,-0.3,1.08,GOOD
1790979685951,797,2220.0,278.3771732136915,32000.0,88.7,98.0,-0.9,-0.3,1.08,GOOD
1790979685951,798,2211.0,317.0474486348478,32000.0,88.7,98.0,-0.9,-0.3,1.08,GOOD
1790979685951,799,2215.0,318.66759326812826,32000.0,88.7,98.0,-0.9,-0.3,1.08,GOOD
1790979685951,800,2237.0,295.68362986649765,32000.0,88.7,98.0,-0.9,-0.3,1.08,GOOD
1790979685952,801,2223.0,269.3916434590111,32000.0,88.7,98.0,-0.9,-0.3,1.08,GOOD
1790979685952,802,2225.0,254.8070955227277,32000.0,88.7,98.0,-0.9,-0.3,1.08,GOOD
1790979685952,803,2229.0,254.30626639203007,32000.0,88.7,98.0,-0.9,-0.3,1.08,GOOD
1790979685952,804,2272.0,262.01522095843916,32000.0,88.7,98.0,-0.9,-0.3,1.08,GOOD
1790979685952,805,2277.0,271.5702229539726,32000.0,88.7,98.0,-0.9,-0.3,1.08,GOOD
1790979685952,806,2117.0,273.4025165730103,32000.0,88.7,98.0,-0.9,-0.3,1.08,GOOD
1790979685952,807,2229.0,257.7453727004065,32000.0,88.7,98.0,-0.9,-0.3,1.08,GOOD
1790979685952,808,2211.0,233.95591489305724,32000.0,88.7,98.0,-0.9,-0.3,1.08,GOOD
1790979685952,809,2181.0,217.55814723826657,32000.0,88.7,98.0,-0.9,-0.3,1.08,GOOD
1790979685952,810,2173.0,205.02259919010308,32000.0,88.7,98.0,-0.9,-0.3,1.08,GOOD
1790979685952,811,2175.0,190.08487458454806,32000.0,88.7,98.0,-0.9,-0.3,1.08,GOOD
1790979685952,812,2160.0,178.06030567313513,32000.0,88.7,98.0,-0.9,-0.3,1.08,GOOD
1790979685952,813,2176.0,173.0201253129311,32000.0,88.7,98.0,-0.9,-0.3,1.08,GOOD
1790979685952,814,2185.0,171.22284016991614,32000.0,88.7,98.0,-0.9,-0.3,1.08,GOOD
1790979685952,815,2172.0,167.69541980866336,32000.0,88.7,98.0,-0.9,-0.3,1.08,GOOD
1790979685952,816,2167.0,162.08907141809277,32000.0,88.7,98.0,-0.9,-0.3,1.08,GOOD
1790979685952,817,2149.0,157.5578055431754,32000.0,88.7,98.0,-0.9,-0.3,1.08,GOOD
1790979685952,818,2152.0,154.2876425286497,32000.0,88.7,98.0,-0.9,-0.3,1.08,GOOD
1790979685952,819,2166.0,148.41713996593643,32000.0,88.7,98.0,-0.9,-0.3,1.08,GOOD
1790979685952,820,2124.0,137.41882146778863,32000.0,88.7,98.0,-0.9,-0.3,1.08,GOOD
1790979685952,821,2151.0,123.76772758748768,32000.0,88.7,98.0,-0.9,-0.3,1.08,GOOD
1790979685952,822,2143.0,115.05352187220899,32000.0,88.7,98.0,-0.9,-0.3,1.08,GOOD
1790979685952,823,2026.0,110.41153141083296,32000.0,88.7,98.0,-0.9,-0.3,1.08,GOOD
1790979685952,824,2025.0,92.75816324228416,32000.0,88.7,98.0,-0.9,-0.3,1.08,GOOD
1790979685952,825,2023.0,54.26046220167577,32000.0,88.7,98.0,-0.9,-0.3,1.08,GOOD
1790979687127,826,2043.0,12.401022799797518,-26.0,91.2,98.0,-0.9,-0.3,1.08,GOOD
1790979687127,827,1849.0,-18.751663749007548,-21.0,91.2,98.0,-0.9,-0.3,1.08,GOOD
1790979687127,828,1858.0,-51.13962807319875,-18.0,91.2,98.0,-0.9,-0.3,1.08,GOOD
1790979687127,829,1786.0,-98.66247050637432,-15.0,91.2,98.0,-0.9,-0.3,1.08,GOOD
1790979687127,830,1823.0,-154.82807829813126,-9.0,91.2,98.0,-0.9,-0.3,1.08,GOOD
1790979687127,831,1802.0,-202.20517362217387,-5.0,91.2,98.0,-0.9,-0.3,1.08,GOOD
1790979687127,832,1871.0,-224.93590420917602,-3.0,91.2,98.0,-0.9,-0.3,1.08,GOOD
1790979687127,833,1966.0,-212.03762386491707,-15.0,91.2,98.0,-0.9,-0.3,1.08,GOOD
1790979687127,834,2062.0,-160.0954224412081,-17.0,91.2,98.0,-0.9,-0.3,1.08,GOOD
1790979687127,835,2006.0,-83.93822280976734,-14.0,91.2,98.0,-0.9,-0.3,1.08,GOOD
1790979687127,836,1863.0,-22.175086981318593,-10.0,91.2,98.0,-0.9,-0.3,1.08,GOOD
1790979687127,837,1879.0,-10.530647779232586,-6.0,91.2,98.0,-0.9,-0.3,1.08,GOOD
1790979687127,838,1851.0,-46.553116844865,-3.0,91.2,98.0,-0.9,-0.3,1.08,GOOD
1790979687127,839,1984.0,-94.99645621986983,-2.0,91.2,98.0,-0.9,-0.3,1.08,GOOD
1790979687127,840,2047.0,-116.59456305702514,0.0,91.2,98.0,-0.9,-0.3,1.08,GOOD
1790979687127,841,2042.0,-92.19789560865577,0.0,91.2,98.0,-0.9,-0.3,1.08,GOOD
1790979687127,842,1915.0,-39.8351504464734,2.0,91.2,98.0,-0.9,-0.3,1.08,GOOD
1790979687127,843,1965.0,0.5932424861409711,2.0,91.2,98.0,-0.9,-0.3,1.08,GOOD
1790979687127,844,1942.0,6.192545241727461,5.0,91.2,98.0,-0.9,-0.3,1.08,GOOD
1790979687127,845,1934.0,-18.421651859071893,9.0,91.2,98.0,-0.9,-0.3,1.08,GOOD
1790979687127,846,2019.0,-51.56294161248327,10.0,91.2,98.0,-0.9,-0.3,1.08,GOOD
1790979687127,847,2076.0,-60.48011867260314,12.0,91.2,98.0,-0.9,-0.3,1.08,GOOD
1790979687127,848,1952.0,-31.605390529050506,13.0,91.2,98.0,-0.9,-0.3,1.08,GOOD
1790979687127,849,1907.0,2.787886989257213,13.0,91.2,98.0,-0.9,-0.3,1.08,GOOD
1790979687127,850,1829.0,-1.2882729507790778,13.0,91.2,98.0,-0.9,-0.3,1.08,GOOD
1790979687127,851,1779.0,-53.71632214517519,32000.0,91.2,98.0,-0.9,-0.3,1.08,GOOD
1790979687127,852,2005.0,-120.1950713973757,32000.0,91.2,98.0,-0.9,-0.3,1.08,GOOD
1790979687127,853,2024.0,-144.61631996352352,32000.0,91.2,98.0,-0.9,-0.3,1.08,GOOD
1790979687127,854,2083.0,-102.7326895877243,32000.0,91.2,98.0,-0.9,-0.3,1.08,GOOD
1790979687127,855,2029.0,-24.751637798951705,32000.0,91.2,98.0,-0.9,-0.3,1.08,GOOD
1790979687127,856,1925.0,38.315064601546275,32000.0,91.2,98.0,-0.9,-0.3,1.08,GOOD
1790979687127,857,1844.0,48.83200697156035,32000.0,91.2,98.0,-0.9,-0.3,1.08,GOOD
1790979687127,858,1886.0,3.4115428893861584,32000.0,91.2,98.0,-0.9,-0.3,1.08,GOOD
1790979687127,859,1917.0,-64.3432962165903,32000.0,91.2,98.0,-0.9,-0.3,1.08,GOOD
1790979687127,860,1912.0,-112.78495573354196,32000.0,91.2,98.0,-0.9,-0.3,1.08,GOOD
1790979687127,861,1895.0,-124.15566375327131,32000.0,91.2,98.0,-0.9,-0.3,1.08,GOOD
1790979687127,862,1823.0,-110.62735061598032,32000.0,91.2,98.0,-0.9,-0.3,1.08,GOOD
1790979687127,863,1900.0,-96.49600559691595,32000.0,91.2,98.0,-0.9,-0.3,1.08,GOOD
1790979687127,864,1951.0,-91.2913072681805,32000.0,91.2,98.0,-0.9,-0.3,1.08,GOOD
1790979687127,865,2038.0,-82.39615988204359,32000.0,91.2,98.0,-0.9,-0.3,1.08,GOOD
1790979687127,866,2049.0,-53.060777498265686,32000.0,91.2,98.0,-0.9,-0.3,1.08,GOOD
1790979687127,867,1929.0,-6.932527713391997,32000.0,91.2,98.0,-0.9,-0.3,1.08,GOOD
1790979687127,868,1940.0,27.252507874379855,32000.0,91.2,98.0,-0.9,-0.3,1.08,GOOD
1790979687127,869,1926.0,26.21215403658158,32000.0,91.2,98.0,-0.9,-0.3,1.08,GOOD
1790979687127,870,1954.0,-4.134009358709195,32000.0,91.2,98.0,-0.9,-0.3,1.08,GOOD
1790979687127,871,1970.0,-37.89806840160699,32000.0,91.2,98.0,-0.9,-0.3,1.08,GOOD
1790979687127,872,2014.0,-48.47469682746508,32000.0,91.2,98.0,-0.9,-0.3,1.08,GOOD
1790979687127,873,1986.0,-27.892297650711658,32000.0,91.2,98.0,-0.9,-0.3,1.08,GOOD
1790979687127,874,1910.0,2.1873620966378473,32000.0,91.2,98.0,-0.9,-0.3,1.08,GOOD
1790979687127,875,1862.0,7.15722753288069,32000.0,91.2,98.0,-0.9,-0.3,1.08,GOOD
1790979687195,876,1888.0,-23.98237450098895,32000.0,91.2,98.0,-1.0,-0.3,1.08,GOOD
1790979687195,877,1904.0,-66.84642011987304,32000.0,91.2,98.0,-1.0,-0.3,1.08,GOOD
1790979687195,878,1895.0,-91.86786736947968,32000.0,91.2,98.0,-1.0,-0.3,1.08,GOOD
1790979687195,879,1911.0,-92.65900755851435,32000.0,91.2,98.0,-1.0,-0.3,1.08,GOOD
1790979687195,880,1923.0,-79.84103897778294,32000.0,91.2,98.0,-1.0,-0.3,1.08,GOOD
1790979687195,881,1946.0,-62.89205566139879,32000.0,91.2,98.0,-1.0,-0.3,1.08,GOOD
1790979687195,882,1960.0,-44.7507660771237,32000.0,91.2,98.0,-1.0,-0.3,1.08,GOOD
1790979687195,883,1950.0,-26.891029181664134,32000.0,91.2,98.0,-1.0,-0.3,1.08,GOOD
1790979687195,884,1947.0,-13.589390344664253,32000.0,91.2,98.0,-1.0,-0.3,1.08,GOOD
1790979687195,885,1930.0,-9.12636876859495,32000.0,91.2,98.0,-1.0,-0.3,1.08,GOOD
1790979687195,886,1899.0,-14.811734973929184,32000.0,91.2,98.0,-1.0,-0.3,1.08,GOOD
1790979687195,887,1918.0,-28.325804933031705,32000.0,91.2,98.0,-1.0,-0.3,1.08,GOOD
1790979687195,888,1975.0,-40.280063116636654,32000.0,91.2,98.0,-1.0,-0.3,1.08,GOOD
1790979687195,889,2037.0,-36.007269299181445,32000.0,91.2,98.0,-1.0,-0.3,1.08,GOOD
1790979687195,890,2182.0,-2.9816480632750695,32000.0,91.2,98.0,-1.0,-0.3,1.08,GOOD
1790979687195,891,2256.0,64.30223424569216,32000.0,91.2,98.0,-1.0,-0.3,1.08,GOOD
1790979687195,892,2473.0,163.45663075335156,32000.0,91.2,98.0,-1.0,-0.3,1.08,GOOD
1790979687195,893,2725.0,294.2731155435123,32000.0,91.2,98.0,-1.0,-0.3,1.08,GOOD
1790979687195,894,2854.0,458.6093422828784,32000.0,91.2,98.0,-1.0,-0.3,1.08,GOOD
1790979687195,895,2627.0,627.0465509901726,32000.0,91.2,98.0,-1.0,-0.3,1.08,GOOD
1790979687195,896,2460.0,728.7149112020036,32000.0,91.2,98.0,-1.0,-0.3,1.08,GOOD
1790979687195,897,2449.0,714.1381056968249,32000.0,91.2,98.0,-1.0,-0.3,1.08,GOOD
1790979687195,898,2359.0,605.6875696501974,32000.0,91.2,98.0,-1.0,-0.3,1.08,GOOD
1790979687195,899,2013.0,450.27656983401243,32000.0,91.2,98.0,-1.0,-0.3,1.08,GOOD
1790979687195,900,1904.0,267.72185614007594,32000.0,91.2,98.0,-1.0,-0.3,1.08,GOOD
1790979687421,901,1978.0,84.69205744583526,32000.0,91.2,98.0,-0.9,-0.3,1.07,GOOD
1790979687421,902,2096.0,-42.039888864868686,32000.0,91.2,98.0,-0.9,-0.3,1.07,GOOD
1790979687421,903,2144.0,-76.85407863115391,32000.0,91.2,98.0,-0.9,-0.3,1.07,GOOD
1790979687421,904,2171.0,-38.19673392181024,32000.0,91.2,98.0,-0.9,-0.3,1.07,GOOD
1790979687421,905,2166.0,32.27306278794657,32000.0,91.2,98.0,-0.9,-0.3,1.07,GOOD
1790979687421,906,2174.0,102.67855981206853,32000.0,91.2,98.0,-0.9,-0.3,1.07,GOOD
1790979687421,907,2139.0,150.34610008355256,32000.0,91.2,98.0,-0.9,-0.3,1.07,GOOD
1790979687421,908,2108.0,156.15841326594023,32000.0,91.2,98.0,-0.9,-0.3,1.07,GOOD
1790979687421,909,2038.0,116.89801746928718,32000.0,91.2,98.0,-0.9,-0.3,1.07,GOOD
1790979687421,910,2153.0,60.38642240651526,32000.0,91.2,98.0,-0.9,-0.3,1.07,GOOD
1790979687421,911,2163.0,32.024989616209616,32000.0,91.2,98.0,-0.9,-0.3,1.07,GOOD
1790979687421,912,2151.0,48.252567785647486,32000.0,91.2,98.0,-0.9,-0.3,1.07,GOOD
1790979687421,913,2185.0,81.406332366854,32000.0,91.2,98.0,-0.9,-0.3,1.07,GOOD
1790979687421,914,2109.0,100.13931847081133,32000.0,91.2,98.0,-0.9,-0.3,1.07,GOOD
1790979687421,915,2157.0,99.07612253921178,32000.0,91.2,98.0,-0.9,-0.3,1.07,GOOD
1790979687421,916,2127.0,91.55883380593494,32000.0,91.2,98.0,-0.9,-0.3,1.07,GOOD
1790979687421,917,2020.0,81.57423564592901,32000.0,91.2,98.0,-0.9,-0.3,1.07,GOOD
1790979687421,918,2040.0,54.72682684180816,32000.0,91.2,98.0,-0.9,-0.3,1.07,GOOD
1790979687421,919,2097.0,12.60702900289026,32000.0,91.2,98.0,-0.9,-0.3,1.07,GOOD
1790979687421,920,2300.0,-7.975922512128064,32000.0,91.2,98.0,-0.9,-0.3,1.07,GOOD
1790979687421,921,2357.0,31.226188995141815,32000.0,91.2,98.0,-0.9,-0.3,1.07,GOOD
1790979687421,922,2356.0,123.80525977226876,32000.0,91.2,98.0,-0.9,-0.3,1.07,GOOD
1790979687421,923,2354.0,221.4505057427223,32000.0,91.2,98.0,-0.9,-0.3,1.07,GOOD
1790979687421,924,2313.0,281.4137392226132,32000.0,91.2,98.0,-0.9,-0.3,1.07,GOOD
1790979687421,925,2270.0,291.5804497947265,32000.0,91.2,98.0,-0.9,-0.3,1.07,GOOD
1790979687421,926,2236.0,260.6886853362074,32000.0,91.2,98.0,-0.9,-0.3,1.07,GOOD
1790979687421,927,2248.0,207.96244378143106,32000.0,91.2,98.0,-0.9,-0.3,1.07,GOOD
1790979687421,928,2270.0,158.69734531914824,32000.0,91.2,98.0,-0.9,-0.3,1.07,GOOD
1790979687421,929,2342.0,136.49106709686072,32000.0,91.2,98.0,-0.9,-0.3,1.07,GOOD
1790979687421,930,2412.0,153.22546183754025,32000.0,91.2,98.0,-0.9,-0.3,1.07,GOOD
1790979687421,931,2382.0,199.80336186989211,32000.0,91.2,98.0,-0.9,-0.3,1.07,GOOD
1790979687421,932,2367.0,247.38737886287942,32000.0,91.2,98.0,-0.9,-0.3,1.07,GOOD
1790979687421,933,2325.0,269.18600518336467,32000.0,91.2,98.0,-0.9,-0.3,1.07,GOOD
1790979687421,934,2356.0,261.0832177671577,32000.0,91.2,98.0,-0.9,-0.3,1.07,GOOD
1790979687421,935,2456.0,242.30605655142773,32000.0,91.2,98.0,-0.9,-0.3,1.07,GOOD
1790979687421,936,2530.0,240.6686117063916,32000.0,91.2,98.0,-0.9,-0.3,1.07,GOOD
1790979687421,937,2590.0,271.71304235158334,32000.0,91.2,98.0,-0.9,-0.3,1.07,GOOD
1790979687421,938,2569.0,328.2807098764282,32000.0,91.2,98.0,-0.9,-0.3,1.07,GOOD
1790979687421,939,2535.0,385.2670689009136,32000.0,91.2,98.0,-0.9,-0.3,1.07,GOOD
1790979687421,940,2528.0,415.2870087271382,32000.0,91.2,98.0,-0.9,-0.3,1.07,GOOD
1790979687421,941,2517.0,407.2716433364991,32000.0,91.2,98.0,-0.9,-0.3,1.07,GOOD
1790979687421,942,2544.0,373.0731482337384,32000.0,91.2,98.0,-0.9,-0.3,1.07,GOOD
1790979687421,943,2550.0,338.6184448470053,32000.0,91.2,98.0,-0.9,-0.3,1.07,GOOD
1790979687421,944,2551.0,324.38454492969674,32000.0,91.2,98.0,-0.9,-0.3,1.07,GOOD
1790979687421,945,2537.0,329.4329606347452,32000.0,91.2,98.0,-0.9,-0.3,1.07,GOOD
1790979687421,946,2471.0,333.7662110739559,32000.0,91.2,98.0,-0.9,-0.3,1.07,GOOD
1790979687421,947,2453.0,317.05867370723684,32000.0,91.2,98.0,-0.9,-0.3,1.07,GOOD
1790979687421,948,2453.0,279.42313399137606,32000.0,91.2,98.0,-0.9,-0.3,1.07,GOOD
1790979687421,949,2455.0,240.22151579977535,32000.0,91.2,98.0,-0.9,-0.3,1.07,GOOD
1790979687421,950,2386.0,212.58288971731238,32000.0,91.2,98.0,-0.9,-0.3,1.07,GOOD
1790979687567,951,2370.0,189.5943276304032,32000.0,91.2,98.0,-0.9,-0.4,1.08,GOOD
1790979687567,952,2357.0,161.13574401184655,32000.0,91.2,98.0,-0.9,-0.4,1.08,GOOD
1790979687567,953,2346.0,129.85799952771123,32000.0,91.2,98.0,-0.9,-0.4,1.08,GOOD
1790979687567,954,2310.0,102.95209884336764,32000.0,91.2,98.0,-0.9,-0.4,1.08,GOOD
1790979687567,955,2234.0,78.19105053472788,32000.0,91.2,98.0,-0.9,-0.4,1.08,GOOD
1790979687567,956,2235.0,46.77093976027727,32000.0,91.2,98.0,-0.9,-0.4,1.08,GOOD
1790979687567,957,2227.0,8.85219783087216,32000.0,91.2,98.0,-0.9,-0.4,1.08,GOOD
1790979687567,958,2200.0,-25.613075701441453,32000.0,91.2,98.0,-0.9,-0.4,1.08,GOOD
1790979687567,959,2160.0,-51.762164501305506,32000.0,91.2,98.0,-0.9,-0.4,1.08,GOOD
1790979687567,960,2170.0,-72.38520747688979,32000.0,91.2,98.0,-0.9,-0.4,1.08,GOOD
1790979687567,961,2154.0,-89.25437102811281,32000.0,91.2,98.0,-0.9,-0.4,1.08,GOOD
1790979687567,962,2142.0,-102.67872060768103,32000.0,91.2,98.0,-0.9,-0.4,1.08,GOOD
1790979687567,963,2112.0,-115.22489295782967,32000.0,91.2,98.0,-0.9,-0.4,1.08,GOOD
1790979687567,964,2015.0,-132.87656135644667,32000.0,91.2,98.0,-0.9,-0.4,1.08,GOOD
1790979687567,965,2043.0,-161.11625173530854,32000.0,91.2,98.0,-0.9,-0.4,1.08,GOOD
1790979687567,966,1986.0,-196.63460210099683,32000.0,91.2,98.0,-0.9,-0.4,1.08,GOOD
1790979687567,967,1921.0,-234.01654785723827,32000.0,91.2,98.0,-0.9,-0.4,1.08,GOOD
1790979687567,968,1772.0,-279.0928554926983,32000.0,91.2,98.0,-0.9,-0.4,1.08,GOOD
1790979687567,969,1783.0,-339.0721896667653,32000.0,91.2,98.0,-0.9,-0.4,1.08,GOOD
1790979687567,970,1941.0,-396.89829635492345,32000.0,91.2,98.0,-0.9,-0.4,1.08,GOOD
1790979687567,971,1982.0,-416.09310056910635,32000.0,91.2,98.0,-0.9,-0.4,1.08,GOOD
1790979687567,972,2104.0,-378.86572224535576,32000.0,91.2,98.0,-0.9,-0.4,1.08,GOOD
1790979687567,973,2117.0,-297.86371660123325,32000.0,91.2,98.0,-0.9,-0.4,1.08,GOOD
1790979687567,974,2118.0,-201.53498366817405,32000.0,91.2,98.0,-0.9,-0.4,1.08,GOOD
1790979687567,975,2089.0,-123.91510427940835,32000.0,91.2,98.0,-0.9,-0.4,1.08,GOOD
1790979687568,976,2069.0,-90.4758669443805,32000.0,91.2,98.0,-0.9,-0.4,1.08,GOOD
1790979687568,977,2076.0,-102.51649210866674,32000.0,91.2,98.0,-0.9,-0.4,1.08,GOOD
1790979687568,978,2092.0,-135.36348118004895,32000.0,91.2,98.0,-0.9,-0.4,1.08,GOOD
1790979687568,979,2092.0,-157.61821329324488,32000.0,91.2,98.0,-0.9,-0.4,1.08,GOOD
1790979687568,980,2077.0,-157.07745803828476,32000.0,91.2,98.0,-0.9,-0.4,1.08,GOOD
1790979687568,981,2076.0,-145.4426465940992,32000.0,91.2,98.0,-0.9,-0.4,1.08,GOOD
1790979687568,982,2058.0,-139.86359186485072,32000.0,91.2,98.0,-0.9,-0.4,1.08,GOOD
1790979687568,983,2050.0,-145.97316343981345,32000.0,91.2,98.0,-0.9,-0.4,1.08,GOOD
1790979687568,984,2092.0,-155.40843800177993,32000.0,91.2,98.0,-0.9,-0.4,1.08,GOOD
1790979687568,985,2098.0,-155.4798983178793,32000.0,91.2,98.0,-0.9,-0.4,1.08,GOOD
1790979687568,986,2107.0,-143.57060743096588,32000.0,91.2,98.0,-0.9,-0.4,1.08,GOOD
1790979687568,987,2105.0,-128.22657865865173,32000.0,91.2,98.0,-0.9,-0.4,1.08,GOOD
1790979687568,988,2081.0,-117.64944590343275,32000.0,91.2,98.0,-0.9,-0.4,1.08,GOOD
1790979687568,989,2087.0,-114.06235216861435,32000.0,91.2,98.0,-0.9,-0.4,1.08,GOOD
1790979687568,990,2082.0,-115.64490400879319,32000.0,91.2,98.0,-0.9,-0.4,1.08,GOOD
1790979687568,991,2075.0,-120.70660401846838,32000.0,91.2,98.0,-0.9,-0.4,1.08,GOOD
1790979687568,992,2078.0,-128.41486058843947,32000.0,91.2,98.0,-0.9,-0.4,1.08,GOOD
1790979687568,993,2116.0,-133.64816469764298,32000.0,91.2,98.0,-0.9,-0.4,1.08,GOOD
1790979687568,994,2114.0,-128.39455401946267,32000.0,91.2,98.0,-0.9,-0.4,1.08,GOOD
1790979687568,995,2091.0,-113.7242285661916,32000.0,91.2,98.0,-0.9,-0.4,1.08,GOOD
1790979687568,996,2001.0,-105.12200147605947,32000.0,91.2,98.0,-0.9,-0.4,1.08,GOOD
1790979687568,997,2074.0,-115.74978443098607,32000.0,91.2,98.0,-0.9,-0.4,1.08,GOOD
1790979687568,998,2069.0,-136.43097130172168,32000.0,91.2,98.0,-0.9,-0.4,1.08,GOOD
1790979687568,999,2070.0,-148.48824010864183,32000.0,91.2,98.0,-0.9,-0.4,1.08,GOOD
1790979687568,1000,2075.0,-146.98904957829234,32000.0,91.2,98.0,-0.9,-0.4,1.08,GOOD
1790979687725,1001,2045.0,-138.748018017088,32000.0,91.2,98.0,-1.0,-0.3,1.08,GOOD
1790979687725,1002,1981.0,-135.04199414867006,32000.0,91.2,98.0,-1.0,-0.3,1.08,GOOD
1790979687725,1003,1940.0,-147.96430080642537,32000.0,91.2,98.0,-1.0,-0.3,1.08,GOOD
1790979687725,1004,1905.0,-181.3009370599645,32000.0,91.2,98.0,-1.0,-0.3,1.08,GOOD
1790979687725,1005,1929.0,-224.76533278893476,32000.0,91.2,98.0,-1.0,-0.3,1.08,GOOD
1790979687725,1006,2096.0,-253.03163989168618,32000.0,91.2,98.0,-1.0,-0.3,1.08,GOOD
1790979687725,1007,1958.0,-244.04172245041198,32000.0,91.2,98.0,-1.0,-0.3,1.08,GOOD
1790979687725,1008,2045.0,-207.76329272762894,32000.0,91.2,98.0,-1.0,-0.3,1.08,GOOD
1790979687725,1009,2009.0,-170.71120529019169,32000.0,91.2,98.0,-1.0,-0.3,1.08,GOOD
1790979687725,1010,2017.0,-147.1602968772072,32000.0,91.2,98.0,-1.0,-0.3,1.08,GOOD
1790979687725,1011,1906.0,-144.9101163872404,32000.0,91.2,98.0,-1.0,-0.3,1.08,GOOD
1790979687725,1012,2062.0,-162.62301515296758,32000.0,91.2,98.0,-1.0,-0.3,1.08,GOOD
1790979687725,1013,2082.0,-175.7109855809808,32000.0,91.2,98.0,-1.0,-0.3,1.08,GOOD
1790979687725,1014,2082.0,-160.51610047687973,32000.0,91.2,98.0,-1.0,-0.3,1.08,GOOD
1790979687725,1015,2070.0,-124.87596676699668,32000.0,91.2,98.0,-1.0,-0.3,1.08,GOOD
1790979687725,1016,2076.0,-91.98111674536732,32000.0,91.2,98.0,-1.0,-0.3,1.08,GOOD
1790979687725,1017,2079.0,-73.95278879787801,32000.0,91.2,98.0,-1.0,-0.3,1.08,GOOD
1790979687725,1018,2031.0,-71.91047001198105,32000.0,91.2,98.0,-1.0,-0.3,1.08,GOOD
1790979687725,1019,2078.0,-82.35541230622232,32000.0,91.2,98.0,-1.0,-0.3,1.08,GOOD
1790979687725,1020,2069.0,-94.99769265174939,32000.0,91.2,98.0,-1.0,-0.3,1.08,GOOD
1790979687725,1021,2067.0,-99.05253418333237,32000.0,91.2,98.0,-1.0,-0.3,1.08,GOOD
1790979687725,1022,2048.0,-94.89341600498781,32000.0,91.2,98.0,-1.0,-0.3,1.08,GOOD
1790979687725,1023,2064.0,-90.03411139639422,32000.0,91.2,98.0,-1.0,-0.3,1.08,GOOD
1790979687725,1024,2073.0,-88.12244378640284,32000.0,91.2,98.0,-1.0,-0.3,1.08,GOOD
1790979687725,1025,2056.0,-87.72408032874846,32000.0,91.2,98.0,-1.0,-0.3,1.08,GOOD
1790979687886,1026,2069.0,-87.13059824240585,32000.0,90.4,98.0,-1.0,-0.3,1.08,GOOD
1790979687886,1027,2087.0,-84.1886700564107,32000.0,90.4,98.0,-1.0,-0.3,1.08,GOOD
1790979687886,1028,2070.0,-77.54126231624579,32000.0,90.4,98.0,-1.0,-0.3,1.08,GOOD
1790979687886,1029,2053.0,-71.72040008784938,32000.0,90.4,98.0,-1.0,-0.3,1.08,GOOD
1790979687886,1030,2060.0,-72.41064024287806,32000.0,90.4,98.0,-1.0,-0.3,1.08,GOOD
1790979687886,1031,2077.0,-77.10674291639971,32000.0,90.4,98.0,-1.0,-0.3,1.08,GOOD
1790979687886,1032,2062.0,-78.93117315563097,32000.0,90.4,98.0,-1.0,-0.3,1.08,GOOD
1790979687886,1033,2059.0,-77.07872412810713,32000.0,90.4,98.0,-1.0,-0.3,1.08,GOOD
1790979687886,1034,2087.0,-74.63575553260767,32000.0,90.4,98.0,-1.0,-0.3,1.08,GOOD
1790979687886,1035,2090.0,-70.58050778478994,32000.0,90.4,98.0,-1.0,-0.3,1.08,GOOD
1790979687886,1036,2105.0,-62.165288588466,32000.0,90.4,98.0,-1.0,-0.3,1.08,GOOD
1790979687886,1037,2118.0,-49.58606187648972,32000.0,90.4,98.0,-1.0,-0.3,1.08,GOOD
1790979687886,1038,2111.0,-35.6876871394587,32000.0,90.4,98.0,-1.0,-0.3,1.08,GOOD
1790979687886,1039,2051.0,-27.278024000828275,32000.0,90.4,98.0,-1.0,-0.3,1.08,GOOD
1790979687886,1040,2055.0,-32.34935614200228,32000.0,90.4,98.0,-1.0,-0.3,1.08,GOOD
1790979687886,1041,1987.0,-52.2495335515782,32000.0,90.4,98.0,-1.0,-0.3,1.08,GOOD
1790979687886,1042,1920.0,-84.92623025044101,32000.0,90.4,98.0,-1.0,-0.3,1.08,GOOD
1790979687886,1043,1850.0,-131.0089603085058,32000.0,90.4,98.0,-1.0,-0.3,1.08,GOOD
1790979687886,1044,1781.0,-189.4179709192934,32000.0,90.4,98.0,-1.0,-0.3,1.08,GOOD
1790979687886,1045,1720.0,-254.69333697920453,32000.0,90.4,98.0,-1.0,-0.3,1.08,GOOD
1790979687886,1046,1752.0,-316.6321239307899,32000.0,90.4,98.0,-1.0,-0.3,1.08,GOOD
1790979687886,1047,1874.0,-355.4840185367487,32000.0,90.4,98.0,-1.0,-0.3,1.08,GOOD
1790979687886,1048,2075.0,-343.3767455177259,32000.0,90.4,98.0,-1.0,-0.3,1.08,GOOD
1790979687886,1049,2103.0,-265.8405466678316,32000.0,90.4,98.0,-1.0,-0.3,1.08,GOOD
1790979687886,1050,2105.0,-146.8676039061931,32000.0,90.4,98.0,-1.0,-0.3,1.08,GOOD
1790979687887,1051,1992.0,-40.27711147499659,32000.0,90.4,98.0,-1.0,-0.3,1.08,GOOD
1790979687887,1052,2025.0,9.760114525112948,32000.0,90.4,98.0,-1.0,-0.3,1.08,GOOD
1790979687887,1053,1990.0,-1.5712307681077373,32000.0,90.4,98.0,-1.0,-0.3,1.08,GOOD
1790979687887,1054,2052.0,-44.92116935197224,32000.0,90.4,98.0,-1.0,-0.3,1.08,GOOD
1790979687887,1055,2054.0,-81.54102864652062,32000.0,90.4,98.0,-1.0,-0.3,1.08,GOOD
1790979687887,1056,2058.0,-86.96400616642497,32000.0,90.4,98.0,-1.0,-0.3,1.08,GOOD
1790979687887,1057,2050.0,-64.38579226467127,32000.0,90.4,98.0,-1.0,-0.3,1.08,GOOD
1790979687887,1058,2119.0,-33.65321543814047,32000.0,90.4,98.0,-1.0,-0.3,1.08,GOOD
1790979687887,1059,2294.0,-2.008802612698192,32000.0,90.4,98.0,-1.0,-0.3,1.08,GOOD
1790979687887,1060,2546.0,53.35887571850872,32000.0,90.4,98.0,-1.0,-0.3,1.08,GOOD
1790979687887,1061,2739.0,166.4993483613874,32000.0,90.4,98.0,-1.0,-0.3,1.08,GOOD
1790979687887,1062,2827.0,340.9490699519553,32000.0,90.4,98.0,-1.0,-0.3,1.08,GOOD
1790979687887,1063,2582.0,522.5004248761787,32000.0,90.4,98.0,-1.0,-0.3,1.08,GOOD
1790979687887,1064,2447.0,621.5622978314855,32000.0,90.4,98.0,-1.0,-0.3,1.08,GOOD
1790979687887,1065,2438.0,590.5416563463034,32000.0,90.4,98.0,-1.0,-0.3,1.08,GOOD
1790979687887,1066,2201.0,460.7217459813058,32000.0,90.4,98.0,-1.0,-0.3,1.08,GOOD
1790979687887,1067,1947.0,282.48594649867294,32000.0,90.4,98.0,-1.0,-0.3,1.08,GOOD
1790979687887,1068,1789.0,82.23420982091626,32000.0,90.4,98.0,-1.0,-0.3,1.08,GOOD
1790979687887,1069,1767.0,-113.86711143884399,32000.0,90.4,98.0,-1.0,-0.3,1.08,GOOD
1790979687887,1070,1824.0,-267.8850396575601,32000.0,90.4,98.0,-1.0,-0.3,1.08,GOOD
1790979687887,1071,1939.0,-348.7244026255971,32000.0,90.4,98.0,-1.0,-0.3,1.08,GOOD
1790979687887,1072,2074.0,-343.65430006321344,32000.0,90.4,98.0,-1.0,-0.3,1.08,GOOD
1790979687887,1073,2092.0,-261.9030230121115,32000.0,90.4,98.0,-1.0,-0.3,1.08,GOOD
1790979687887,1074,2066.0,-142.36034069248564,32000.0,90.4,98.0,-1.0,-0.3,1.08,GOOD
1790979687887,1075,2004.0,-44.3086630093475,32000.0,90.4,98.0,-1.0,-0.3,1.08,GOOD
1790979688031,1076,1977.0,-12.24248811355288,32000.0,90.4,98.0,-1.0,-0.3,1.08,GOOD
1790979688031,1077,1929.0,-47.51776281869536,32000.0,90.4,98.0,-1.0,-0.3,1.08,GOOD
1790979688031,1078,1942.0,-113.33971381743503,32000.0,90.4,98.0,-1.0,-0.3,1.08,GOOD
1790979688031,1079,1932.0,-165.64455226647178,32000.0,90.4,98.0,-1.0,-0.3,1.08,GOOD
1790979688031,1080,1958.0,-183.8300441940499,32000.0,90.4,98.0,-1.0,-0.3,1.08,GOOD
1790979688031,1081,2020.0,-173.93768373216335,32000.0,90.4,98.0,-1.0,-0.3,1.08,GOOD
1790979688031,1082,2017.0,-149.2507762828007,32000.0,90.4,98.0,-1.0,-0.3,1.08,GOOD
1790979688031,1083,1988.0,-120.60736877059458,32000.0,90.4,98.0,-1.0,-0.3,1.08,GOOD
1790979688031,1084,1880.0,-101.40040591465929,32000.0,90.4,98.0,-1.0,-0.3,1.08,GOOD
1790979688031,1085,1820.0,-109.07668929468846,32000.0,90.4,98.0,-1.0,-0.3,1.08,GOOD
1790979688031,1086,1887.0,-148.86513380267695,32000.0,90.4,98.0,-1.0,-0.3,1.08,GOOD
1790979688031,1087,2091.0,-191.30683405774684,32000.0,90.4,98.0,-1.0,-0.3,1.08,GOOD
1790979688031,1088,2067.0,-189.90167748424614,32000.0,90.4,98.0,-1.0,-0.3,1.08,GOOD
1790979688031,1089,2089.0,-132.75219730679783,32000.0,90.4,98.0,-1.0,-0.3,1.08,GOOD
1790979688031,1090,2096.0,-51.226653287278744,32000.0,90.4,98.0,-1.0,-0.3,1.08,GOOD
1790979688031,1091,2054.0,14.100445301784648,32000.0,90.4,98.0,-1.0,-0.3,1.08,GOOD
1790979688031,1092,2045.0,36.066607960552055,32000.0,90.4,98.0,-1.0,-0.3,1.08,GOOD
1790979688031,1093,2081.0,16.271962499094727,32000.0,90.4,98.0,-1.0,-0.3,1.08,GOOD
1790979688031,1094,2110.0,-12.93828976540073,32000.0,90.4,98.0,-1.0,-0.3,1.08,GOOD
1790979688031,1095,2121.0,-18.47802606007634,32000.0,90.4,98.0,-1.0,-0.3,1.08,GOOD
1790979688031,1096,2103.0,2.701483076558908,32000.0,90.4,98.0,-1.0,-0.3,1.08,GOOD
1790979688031,1097,2109.0,27.900099293339313,32000.0,90.4,98.0,-1.0,-0.3,1.08,GOOD
1790979688031,1098,2035.0,35.09559292057,32000.0,90.4,98.0,-1.0,-0.3,1.08,GOOD
1790979688031,1099,2134.0,23.028332642298572,32000.0,90.4,98.0,-1.0,-0.3,1.08,GOOD
1790979688031,1100,2156.0,13.222870343223528,32000.0,90.4,98.0,-1.0,-0.3,1.08,GOOD
1790979688329,1101,2168.0,24.523635815881278,-1.0,90.4,98.0,-1.0,-0.3,1.08,GOOD
1790979688329,1102,2204.0,51.95348874838711,-5.0,90.4,98.0,-1.0,-0.3,1.08,GOOD
1790979688329,1103,2228.0,82.320716296334,-8.0,90.4,98.0,-1.0,-0.3,1.08,GOOD
1790979688329,1104,2241.0,110.7582452235839,-11.0,90.4,98.0,-1.0,-0.3,1.08,GOOD
1790979688329,1105,2222.0,135.13808249257784,-15.0,90.4,98.0,-1.0,-0.3,1.08,GOOD
1790979688329,1106,2265.0,151.333657107821,-17.0,90.4,98.0,-1.0,-0.3,1.08,GOOD
1790979688329,1107,2259.0,158.61456220227512,-18.0,90.4,98.0,-1.0,-0.3,1.08,GOOD
1790979688329,1108,2285.0,161.40930965978617,-20.0,90.4,98.0,-1.0,-0.3,1.08,GOOD
1790979688329,1109,2301.0,166.1104613595674,-23.0,90.4,98.0,-1.0,-0.3,1.08,GOOD
1790979688329,1110,2301.0,176.92104820334373,-24.0,90.4,98.0,-1.0,-0.3,1.08,GOOD
1790979688329,1111,2292.0,190.26732417465598,-26.0,90.4,98.0,-1.0,-0.3,1.08,GOOD
1790979688329,1112,2255.0,196.02295957145742,-27.0,90.4,98.0,-1.0,-0.3,1.08,GOOD
1790979688329,1113,2246.0,186.70099497884456,-26.0,90.4,98.0,-1.0,-0.3,1.08,GOOD
1790979688329,1114,2276.0,166.68516058079922,-27.0,90.4,98.0,-1.0,-0.3,1.08,GOOD
1790979688329,1115,2251.0,148.8332028863159,-27.0,90.4,98.0,-1.0,-0.3,1.08,GOOD
1790979688329,1116,2217.0,138.01565232686505,-22.0,90.4,98.0,-1.0,-0.3,1.08,GOOD
1790979688329,1117,2166.0,125.87596135608926,-23.0,90.4,98.0,-1.0,-0.3,1.08,GOOD
1790979688329,1118,2111.0,102.00996916104741,-23.0,90.4,98.0,-1.0,-0.3,1.08,GOOD
1790979688329,1119,1976.0,59.3386838995916,-22.0,90.4,98.0,-1.0,-0.3,1.08,GOOD
1790979688329,1120,1925.0,-6.265058272748213,-23.0,90.4,98.0,-1.0,-0.3,1.08,GOOD
1790979688329,1121,1874.0,-88.3074216846252,-24.0,90.4,98.0,-1.0,-0.3,1.08,GOOD
1790979688329,1122,1919.0,-165.8986547676079,-25.0,90.4,98.0,-1.0,-0.3,1.08,GOOD
1790979688329,1123,1931.0,-215.0774256430762,-24.0,90.4,98.0,-1.0,-0.3,1.08,GOOD
1790979688329,1124,1950.0,-225.31222791824612,-22.0,90.4,98.0,-1.0,-0.3,1.08,GOOD
1790979688329,1125,1939.0,-205.87007520436808,-24.0,90.4,98.0,-1.0,-0.3,1.08,GOOD
1790979688330,1126,1932.0,-176.9163122425317,32000.0,90.4,98.0,-1.0,-0.3,1.08,GOOD
1790979688330,1127,1936.0,-155.7649607960656,32000.0,90.4,98.0,-1.0,-0.3,1.08,GOOD
1790979688330,1128,1924.0,-149.1975791841072,32000.0,90.4,98.0,-1.0,-0.3,1.08,GOOD
1790979688330,1129,1801.0,-159.27069833293336,32000.0,90.4,98.0,-1.0,-0.3,1.08,GOOD
1790979688330,1130,1964.0,-182.27407942700154,32000.0,90.4,98.0,-1.0,-0.3,1.08,GOOD
1790979688330,1131,1943.0,-197.0170630966668,32000.0,90.4,98.0,-1.0,-0.3,1.08,GOOD
1790979688330,1132,1807.0,-192.10671306451937,32000.0,90.4,98.0,-1.0,-0.3,1.08,GOOD
1790979688330,1133,1912.0,-185.99683781911472,32000.0,90.4,98.0,-1.0,-0.3,1.08,GOOD
1790979688330,1134,1928.0,-186.47145644366725,32000.0,90.4,98.0,-1.0,-0.3,1.08,GOOD
1790979688330,1135,1945.0,-179.6948369263029,32000.0,90.4,98.0,-1.0,-0.3,1.08,GOOD
1790979688330,1136,1939.0,-161.72432099222422,32000.0,90.4,98.0,-1.0,-0.3,1.08,GOOD
1790979688330,1137,1926.0,-141.842764394087,32000.0,90.4,98.0,-1.0,-0.3,1.08,GOOD
1790979688330,1138,1930.0,-128.14548407152216,32000.0,90.4,98.0,-1.0,-0.3,1.08,GOOD
1790979688330,1139,1927.0,-122.4020093604085,32000.0,90.4,98.0,-1.0,-0.3,1.08,GOOD
1790979688330,1140,1951.0,-121.95462418736653,32000.0,90.4,98.0,-1.0,-0.3,1.08,GOOD
1790979688330,1141,1918.0,-123.31813898018997,32000.0,90.4,98.0,-1.0,-0.3,1.08,GOOD
1790979688330,1142,1947.0,-123.85074232528675,32000.0,90.4,98.0,-1.0,-0.3,1.08,GOOD
1790979688330,1143,1961.0,-119.65658125857894,32000.0,90.4,98.0,-1.0,-0.3,1.08,GOOD
1790979688330,1144,1951.0,-108.65829953962378,32000.0,90.4,98.0,-1.0,-0.3,1.08,GOOD
1790979688330,1145,1914.0,-98.06821421460431,32000.0,90.4,98.0,-1.0,-0.3,1.08,GOOD
1790979688330,1146,1924.0,-97.63891973835885,32000.0,90.4,98.0,-1.0,-0.3,1.08,GOOD
1790979688330,1147,1883.0,-107.5350489978432,32000.0,90.4,98.0,-1.0,-0.3,1.08,GOOD
1790979688330,1148,1891.0,-121.48697491505214,32000.0,90.4,98.0,-1.0,-0.3,1.08,GOOD
1790979688330,1149,1892.0,-134.12927681377374,32000.0,90.4,98.0,-1.0,-0.3,1.08,GOOD
1790979688330,1150,1928.0,-140.8096704352928,32000.0,90.4,98.0,-1.0,-0.3,1.08,GOOD
1790979688331,1151,1903.0,-138.38987834327764,32000.0,90.4,98.0,-1.0,-0.3,1.08,GOOD
1790979688331,1152,1901.0,-129.1607251095692,32000.0,90.4,98.0,-1.0,-0.3,1.08,GOOD
1790979688331,1153,1945.0,-117.35232311169212,32000.0,90.4,98.0,-1.0,-0.3,1.08,GOOD
1790979688331,1154,1984.0,-101.97816992899641,32000.0,90.4,98.0,-1.0,-0.3,1.08,GOOD
1790979688331,1155,1967.0,-81.91672786322604,32000.0,90.4,98.0,-1.0,-0.3,1.08,GOOD
1790979688331,1156,1979.0,-62.17924970480035,32000.0,90.4,98.0,-1.0,-0.3,1.08,GOOD
1790979688331,1157,1944.0,-48.19611300081618,32000.0,90.4,98.0,-1.0,-0.3,1.08,GOOD
1790979688331,1158,1965.0,-41.62390212101154,32000.0,90.4,98.0,-1.0,-0.3,1.08,GOOD
1790979688331,1159,1985.0,-40.67573163222792,32000.0,90.4,98.0,-1.0,-0.3,1.08,GOOD
1790979688331,1160,2006.0,-40.36378586769959,32000.0,90.4,98.0,-1.0,-0.3,1.08,GOOD
1790979688331,1161,1972.0,-36.80054524246594,32000.0,90.4,98.0,-1.0,-0.3,1.08,GOOD
1790979688331,1162,1968.0,-30.969592743195037,32000.0,90.4,98.0,-1.0,-0.3,1.08,GOOD
1790979688331,1163,1963.0,-26.24267012572321,32000.0,90.4,98.0,-1.0,-0.3,1.08,GOOD
1790979688331,1164,1980.0,-25.12669818868043,32000.0,90.4,98.0,-1.0,-0.3,1.08,GOOD
1790979688331,1165,1960.0,-28.89654055481481,32000.0,90.4,98.0,-1.0,-0.3,1.08,GOOD
1790979688331,1166,1964.0,-36.26385072065952,32000.0,90.4,98.0,-1.0,-0.3,1.08,GOOD
1790979688331,1167,1980.0,-40.937736883078,32000.0,90.4,98.0,-1.0,-0.3,1.08,GOOD
1790979688331,1168,1997.0,-35.72578458308763,32000.0,90.4,98.0,-1.0,-0.3,1.08,GOOD
1790979688331,1169,2009.0,-21.463361668107417,32000.0,90.4,98.0,-1.0,-0.3,1.08,GOOD
1790979688331,1170,1982.0,-7.6047192253122535,32000.0,90.4,98.0,-1.0,-0.3,1.08,GOOD
1790979688331,1171,1998.0,-1.8119627629020767,32000.0,90.4,98.0,-1.0,-0.3,1.08,GOOD
1790979688331,1172,1842.0,-7.37797243787923,32000.0,90.4,98.0,-1.0,-0.3,1.08,GOOD
1790979688331,1173,1979.0,-25.710862076824977,32000.0,90.4,98.0,-1.0,-0.3,1.08,GOOD
1790979688331,1174,1978.0,-45.66552305299572,32000.0,90.4,98.0,-1.0,-0.3,1.08,GOOD
1790979688331,1175,1991.0,-51.153458360466615,32000.0,90.4,98.0,-1.0,-0.3,1.08,GOOD
1790979688488,1176,1999.0,-40.50556640178363,32000.0,86.8,98.0,-1.0,-0.4,1.08,GOOD
1790979688488,1177,2003.0,-19.416502910508637,32000.0,86.8,98.0,-1.0,-0.4,1.08,GOOD
1790979688488,1178,1959.0,3.9147411674530925,32000.0,86.8,98.0,-1.0,-0.4,1.08,GOOD
1790979688488,1179,1948.0,14.534710860116643,32000.0,86.8,98.0,-1.0,-0.4,1.08,GOOD
1790979688488,1180,1973.0,3.8946567023391374,32000.0,86.8,98.0,-1.0,-0.4,1.08,GOOD
1790979688488,1181,1948.0,-17.884084208515564,32000.0,86.8,98.0,-1.0,-0.4,1.08,GOOD
1790979688488,1182,1982.0,-32.64445502883882,32000.0,86.8,98.0,-1.0,-0.4,1.08,GOOD
1790979688488,1183,1933.0,-32.10119790014133,32000.0,86.8,98.0,-1.0,-0.4,1.08,GOOD
1790979688488,1184,1755.0,-32.18877651482363,32000.0,86.8,98.0,-1.0,-0.4,1.08,GOOD
1790979688488,1185,1845.0,-59.16240879064026,32000.0,86.8,98.0,-1.0,-0.4,1.08,GOOD
1790979688488,1186,1878.0,-106.11208385842178,32000.0,86.8,98.0,-1.0,-0.4,1.08,GOOD
1790979688488,1187,1950.0,-134.80520633160307,32000.0,86.8,98.0,-1.0,-0.4,1.08,GOOD
1790979688488,1188,1966.0,-121.73274018456797,32000.0,86.8,98.0,-1.0,-0.4,1.08,GOOD
1790979688488,1189,1914.0,-78.30713510610168,32000.0,86.8,98.0,-1.0,-0.4,1.08,GOOD
1790979688488,1190,1919.0,-35.79982104420646,32000.0,86.8,98.0,-1.0,-0.4,1.08,GOOD
1790979688488,1191,1945.0,-15.379687926140399,32000.0,86.8,98.0,-1.0,-0.4,1.08,GOOD
1790979688488,1192,1996.0,-12.808050363808398,32000.0,86.8,98.0,-1.0,-0.4,1.08,GOOD
1790979688488,1193,2043.0,-9.53337652439064,32000.0,86.8,98.0,-1.0,-0.4,1.08,GOOD
1790979688488,1194,2072.0,10.026462697622657,32000.0,86.8,98.0,-1.0,-0.4,1.08,GOOD
1790979688488,1195,2064.0,46.93510652588224,32000.0,86.8,98.0,-1.0,-0.4,1.08,GOOD
1790979688488,1196,1905.0,80.48634442340378,32000.0,86.8,98.0,-1.0,-0.4,1.08,GOOD
1790979688488,1197,2016.0,83.43798871887017,32000.0,86.8,98.0,-1.0,-0.4,1.08,GOOD
1790979688488,1198,2015.0,58.374946264595394,32000.0,86.8,98.0,-1.0,-0.4,1.08,GOOD
1790979688488,1199,2011.0,33.23731523216362,32000.0,86.8,98.0,-1.0,-0.4,1.08,GOOD
1790979688488,1200,2017.0,25.128687112232782,32000.0,86.8,98.0,-1.0,-0.4,1.08,GOOD
1790979688632,1201,1995.0,32.9364172831135,32000.0,86.8,98.0,-1.1,-0.5,1.09,GOOD
1790979688632,1202,1980.0,44.93737728139188,32000.0,86.8,98.0,-1.1,-0.5,1.09,GOOD
1790979688632,1203,1957.0,46.169767171403024,32000.0,86.8,98.0,-1.1,-0.5,1.09,GOOD
1790979688632,1204,1971.0,31.598089219680006,32000.0,86.8,98.0,-1.1,-0.5,1.09,GOOD
1790979688632,1205,2000.0,12.893201791172347,32000.0,86.8,98.0,-1.1,-0.5,1.09,GOOD
1790979688632,1206,2000.0,7.145494317818038,32000.0,86.8,98.0,-1.1,-0.5,1.09,GOOD
1790979688632,1207,1984.0,17.299528754679926,32000.0,86.8,98.0,-1.1,-0.5,1.09,GOOD
1790979688632,1208,1995.0,30.792249590381743,32000.0,86.8,98.0,-1.1,-0.5,1.09,GOOD
1790979688632,1209,2002.0,37.24895821118273,32000.0,86.8,98.0,-1.1,-0.5,1.09,GOOD
1790979688632,1210,2017.0,38.470446218649116,32000.0,86.8,98.0,-1.1,-0.5,1.09,GOOD
1790979688632,1211,1997.0,40.82511826989651,32000.0,86.8,98.0,-1.1,-0.5,1.09,GOOD
1790979688632,1212,2001.0,45.056076121294225,32000.0,86.8,98.0,-1.1,-0.5,1.09,GOOD
1790979688632,1213,1979.0,46.417576843959516,32000.0,86.8,98.0,-1.1,-0.5,1.09,GOOD
1790979688632,1214,1980.0,41.13193504991462,32000.0,86.8,98.0,-1.1,-0.5,1.09,GOOD
1790979688632,1215,1998.0,31.81072161928106,32000.0,86.8,98.0,-1.1,-0.5,1.09,GOOD
1790979688632,1216,2023.0,27.215524975962374,32000.0,86.8,98.0,-1.1,-0.5,1.09,GOOD
1790979688632,1217,2107.0,36.85936775957659,32000.0,86.8,98.0,-1.1,-0.5,1.09,GOOD
1790979688632,1218,2278.0,71.35462683638613,32000.0,86.8,98.0,-1.1,-0.5,1.09,GOOD
1790979688632,1219,2492.0,145.93272884348656,32000.0,86.8,98.0,-1.1,-0.5,1.09,GOOD
1790979688632,1220,2586.0,268.2824927815741,32000.0,86.8,98.0,-1.1,-0.5,1.09,GOOD
1790979688632,1221,2468.0,412.31925161280947,32000.0,86.8,98.0,-1.1,-0.5,1.09,GOOD
1790979688632,1222,2444.0,521.2240131439877,32000.0,86.8,98.0,-1.1,-0.5,1.09,GOOD
1790979688632,1223,2429.0,556.1036493083298,32000.0,86.8,98.0,-1.1,-0.5,1.09,GOOD
1790979688632,1224,2394.0,524.1853319172022,32000.0,86.8,98.0,-1.1,-0.5,1.09,GOOD
1790979688632,1225,2063.0,445.1971416537898,32000.0,86.8,98.0,-1.1,-0.5,1.09,GOOD
1790979688633,1226,1784.0,315.06901956803677,32000.0,86.8,98.0,-1.1,-0.5,1.09,GOOD
1790979688633,1227,1622.0,127.70154232419912,32000.0,86.8,98.0,-1.1,-0.5,1.09,GOOD
1790979688633,1228,1612.0,-87.60540231417927,32000.0,86.8,98.0,-1.1,-0.5,1.09,GOOD
1790979688633,1229,1761.0,-271.8420829627608,32000.0,86.8,98.0,-1.1,-0.5,1.09,GOOD
1790979688633,1230,2107.0,-357.98279904630203,32000.0,86.8,98.0,-1.1,-0.5,1.09,GOOD
1790979688633,1231,2128.0,-301.85662053532417,32000.0,86.8,98.0,-1.1,-0.5,1.09,GOOD
1790979688633,1232,2136.0,-131.23080802241066,32000.0,86.8,98.0,-1.1,-0.5,1.09,GOOD
1790979688633,1233,2054.0,57.395811936649906,32000.0,86.8,98.0,-1.1,-0.5,1.09,GOOD
1790979688633,1234,1878.0,162.83513744994104,32000.0,86.8,98.0,-1.1,-0.5,1.09,GOOD
1790979688633,1235,1973.0,142.61878153625352,32000.0,86.8,98.0,-1.1,-0.5,1.09,GOOD
1790979688633,1236,1976.0,43.60959158512938,32000.0,86.8,98.0,-1.1,-0.5,1.09,GOOD
1790979688633,1237,1965.0,-45.0178164982964,32000.0,86.8,98.0,-1.1,-0.5,1.09,GOOD
1790979688633,1238,2022.0,-72.04224057943608,32000.0,86.8,98.0,-1.1,-0.5,1.09,GOOD
1790979688633,1239,2003.0,-44.73615427296738,32000.0,86.8,98.0,-1.1,-0.5,1.09,GOOD
1790979688633,1240,2014.0,-2.5763973893603067,32000.0,86.8,98.0,-1.1,-0.5,1.09,GOOD
1790979688633,1241,1994.0,20.544408038331664,32000.0,86.8,98.0,-1.1,-0.5,1.09,GOOD
1790979688633,1242,2030.0,22.193065107618597,32000.0,86.8,98.0,-1.1,-0.5,1.09,GOOD
1790979688633,1243,2031.0,21.51585125026422,32000.0,86.8,98.0,-1.1,-0.5,1.09,GOOD
1790979688633,1244,2006.0,28.54500969029059,32000.0,86.8,98.0,-1.1,-0.5,1.09,GOOD
1790979688633,1245,2040.0,34.61339468880848,32000.0,86.8,98.0,-1.1,-0.5,1.09,GOOD
1790979688633,1246,2061.0,34.132182682099454,32000.0,86.8,98.0,-1.1,-0.5,1.09,GOOD
1790979688633,1247,2079.0,36.484129097773106,32000.0,86.8,98.0,-1.1,-0.5,1.09,GOOD
1790979688633,1248,2061.0,50.31008463310637,32000.0,86.8,98.0,-1.1,-0.5,1.09,GOOD
1790979688633,1249,2040.0,68.64824558681752,32000.0,86.8,98.0,-1.1,-0.5,1.09,GOOD
1790979688633,1250,2057.0,76.50471981275075,32000.0,86.8,98.0,-1.1,-0.5,1.09,GOOD
1790979688795,1251,2095.0,71.05038377114457,32000.0,86.8,98.0,-1.1,-0.4,1.08,GOOD
1790979688795,1252,2119.0,66.27491723667617,32000.0,86.8,98.0,-1.1,-0.4,1.08,GOOD
1790979688795,1253,2109.0,75.33400768310749,32000.0,86.8,98.0,-1.1,-0.4,1.08,GOOD
1790979688795,1254,2092.0,94.6740678142909,32000.0,86.8,98.0,-1.1,-0.4,1.08,GOOD
1790979688795,1255,2113.0,110.03339630156998,32000.0,86.8,98.0,-1.1,-0.4,1.08,GOOD
1790979688795,1256,2138.0,114.5062543479055,32000.0,86.8,98.0,-1.1,-0.4,1.08,GOOD
1790979688795,1257,2118.0,112.89608143916834,32000.0,86.8,98.0,-1.1,-0.4,1.08,GOOD
1790979688795,1258,2084.0,110.02938957758985,32000.0,86.8,98.0,-1.1,-0.4,1.08,GOOD
1790979688795,1259,2040.0,103.34369704270557,32000.0,86.8,98.0,-1.1,-0.4,1.08,GOOD
1790979688795,1260,2014.0,86.61373419344369,32000.0,86.8,98.0,-1.1,-0.4,1.08,GOOD
1790979688795,1261,1888.0,52.97628525241445,32000.0,86.8,98.0,-1.1,-0.4,1.08,GOOD
1790979688795,1262,2041.0,4.79983829421866,32000.0,86.8,98.0,-1.1,-0.4,1.08,GOOD
1790979688795,1263,2299.0,-22.171888881321035,32000.0,86.8,98.0,-1.1,-0.4,1.08,GOOD
1790979688795,1264,2291.0,19.11594562315156,32000.0,86.8,98.0,-1.1,-0.4,1.08,GOOD
1790979688795,1265,2177.0,117.08933302132621,32000.0,86.8,98.0,-1.1,-0.4,1.08,GOOD
1790979688795,1266,2327.0,210.69862209204538,32000.0,86.8,98.0,-1.1,-0.4,1.08,GOOD
1790979688795,1267,2328.0,267.99827982952456,32000.0,86.8,98.0,-1.1,-0.4,1.08,GOOD
1790979688795,1268,2294.0,293.53282777336005,32000.0,86.8,98.0,-1.1,-0.4,1.08,GOOD
1790979688795,1269,2282.0,291.85714857251844,32000.0,86.8,98.0,-1.1,-0.4,1.08,GOOD
1790979688795,1270,2212.0,269.15018640614255,32000.0,86.8,98.0,-1.1,-0.4,1.08,GOOD
1790979688795,1271,2181.0,236.66880463153228,32000.0,86.8,98.0,-1.1,-0.4,1.08,GOOD
1790979688795,1272,2215.0,202.63444527325942,32000.0,86.8,98.0,-1.1,-0.4,1.08,GOOD
1790979688795,1273,2100.0,168.4618373371133,32000.0,86.8,98.0,-1.1,-0.4,1.08,GOOD
1790979688795,1274,2228.0,133.42753332652327,32000.0,86.8,98.0,-1.1,-0.4,1.08,GOOD
1790979688795,1275,2241.0,112.21392142877401,32000.0,86.8,98.0,-1.1,-0.4,1.08,GOOD
1790979689953,1276,2241.0,122.83283797265108,17.0,91.4,98.0,-0.9,-0.3,1.07,GOOD
1790979689953,1277,2246.0,155.79603245506576,19.0,91.4,98.0,-0.9,-0.3,1.07,GOOD
1790979689953,1278,2231.0,183.92826134482067,19.0,91.4,98.0,-0.9,-0.3,1.07,GOOD
1790979689953,1279,2192.0,189.25284611468288,21.0,91.4,98.0,-0.9,-0.3,1.07,GOOD
1790979689953,1280,2162.0,171.198937233256,19.0,91.4,98.0,-0.9,-0.3,1.07,GOOD
1790979689953,1281,2106.0,139.36006849700834,14.0,91.4,98.0,-0.9,-0.3,1.07,GOOD
1790979689953,1282,2091.0,101.47325845184001,12.0,91.4,98.0,-0.9,-0.3,1.07,GOOD
1790979689953,1283,2038.0,59.79430240416067,14.0,91.4,98.0,-0.9,-0.3,1.07,GOOD
1790979689953,1284,2021.0,15.966738884905869,15.0,91.4,98.0,-0.9,-0.3,1.07,GOOD
1790979689953,1285,1993.0,-24.25273035946788,16.0,91.4,98.0,-0.9,-0.3,1.07,GOOD
1790979689953,1286,1930.0,-55.90934106731949,15.0,91.4,98.0,-0.9,-0.3,1.07,GOOD
1790979689953,1287,1919.0,-82.9411652222755,17.0,91.4,98.0,-0.9,-0.3,1.07,GOOD
1790979689953,1288,1828.0,-114.64988065470686,17.0,91.4,98.0,-0.9,-0.3,1.07,GOOD
1790979689953,1289,1924.0,-152.307566127487,17.0,91.4,98.0,-0.9,-0.3,1.07,GOOD
1790979689953,1290,1924.0,-179.80187869912766,15.0,91.4,98.0,-0.9,-0.3,1.07,GOOD
1790979689953,1291,1923.0,-180.995536427336,16.0,91.4,98.0,-0.9,-0.3,1.07,GOOD
1790979689953,1292,1984.0,-159.29648033682452,16.0,91.4,98.0,-0.9,-0.3,1.07,GOOD
1790979689953,1293,1946.0,-128.56426768128125,17.0,91.4,98.0,-0.9,-0.3,1.07,GOOD
1790979689953,1294,1936.0,-103.74408760905425,19.0,91.4,98.0,-0.9,-0.3,1.07,GOOD
1790979689953,1295,1923.0,-95.37229862117616,19.0,91.4,98.0,-0.9,-0.3,1.07,GOOD
1790979689953,1296,1861.0,-104.24893497424958,19.0,91.4,98.0,-0.9,-0.3,1.07,GOOD
1790979689953,1297,1808.0,-128.72098302732275,20.0,91.4,98.0,-0.9,-0.3,1.07,GOOD
1790979689953,1298,1802.0,-166.29889221342472,19.0,91.4,98.0,-0.9,-0.3,1.07,GOOD
1790979689953,1299,1795.0,-206.72237940274758,16.0,91.4,98.0,-0.9,-0.3,1.07,GOOD
1790979689953,1300,2017.0,-227.81311384080567,12.0,91.4,98.0,-0.9,-0.3,1.07,GOOD
1790979689954,1301,2006.0,-204.1082307409748,32000.0,91.4,98.0,-0.9,-0.3,1.07,GOOD
1790979689954,1302,1921.0,-141.4842950368801,32000.0,91.4,98.0,-0.9,-0.3,1.07,GOOD
1790979689954,1303,1891.0,-83.72547285992636,32000.0,91.4,98.0,-0.9,-0.3,1.07,GOOD
1790979689954,1304,1988.0,-60.477083904190614,32000.0,91.4,98.0,-0.9,-0.3,1.07,GOOD
1790979689954,1305,1986.0,-60.718796213632146,32000.0,91.4,98.0,-0.9,-0.3,1.07,GOOD
1790979689954,1306,2007.0,-63.5178839972684,32000.0,91.4,98.0,-0.9,-0.3,1.07,GOOD
1790979689954,1307,2007.0,-59.46022283176097,32000.0,91.4,98.0,-0.9,-0.3,1.07,GOOD
1790979689954,1308,2043.0,-43.919251179081385,32000.0,91.4,98.0,-0.9,-0.3,1.07,GOOD
1790979689954,1309,2040.0,-16.93902754490419,32000.0,91.4,98.0,-0.9,-0.3,1.07,GOOD
1790979689954,1310,2064.0,10.765364978769835,32000.0,91.4,98.0,-0.9,-0.3,1.07,GOOD
1790979689954,1311,2160.0,30.33065971141432,32000.0,91.4,98.0,-0.9,-0.3,1.07,GOOD
1790979689954,1312,2510.0,63.31823507103755,32000.0,91.4,98.0,-0.9,-0.3,1.07,GOOD
1790979689954,1313,2583.0,153.7674311840676,32000.0,91.4,98.0,-0.9,-0.3,1.07,GOOD
1790979689954,1314,2738.0,310.67498748384276,32000.0,91.4,98.0,-0.9,-0.3,1.07,GOOD
1790979689954,1315,2846.0,493.2761097654958,32000.0,91.4,98.0,-0.9,-0.3,1.07,GOOD
1790979689954,1316,2804.0,650.9869568700079,32000.0,91.4,98.0,-0.9,-0.3,1.07,GOOD
1790979689954,1317,2639.0,740.6282930196692,32000.0,91.4,98.0,-0.9,-0.3,1.07,GOOD
1790979689954,1318,1717.0,702.9377495662723,32000.0,91.4,98.0,-0.9,-0.3,1.07,GOOD
1790979689954,1319,1748.0,480.8319114828344,32000.0,91.4,98.0,-0.9,-0.3,1.07,GOOD
1790979689954,1320,1716.0,124.43063869130026,32000.0,91.4,98.0,-0.9,-0.3,1.07,GOOD
1790979689954,1321,1699.0,-215.12203529832735,32000.0,91.4,98.0,-0.9,-0.3,1.07,GOOD
1790979689954,1322,1805.0,-424.9428443097004,32000.0,91.4,98.0,-0.9,-0.3,1.07,GOOD
1790979689954,1323,2005.0,-469.8810019461912,32000.0,91.4,98.0,-0.9,-0.3,1.07,GOOD
1790979689954,1324,2115.0,-362.74235288045185,32000.0,91.4,98.0,-0.9,-0.3,1.07,GOOD
1790979689954,1325,2100.0,-172.11303916902202,32000.0,91.4,98.0,-0.9,-0.3,1.07,GOOD
1790979689955,1326,2003.0,-7.172014792797308,32000.0,91.4,98.0,-0.9,-0.3,1.07,GOOD
1790979689955,1327,1976.0,54.073340867180896,32000.0,91.4,98.0,-0.9,-0.3,1.07,GOOD
1790979689955,1328,1985.0,20.677053548291664,32000.0,91.4,98.0,-0.9,-0.3,1.07,GOOD
1790979689955,1329,1976.0,-40.9873043165656,32000.0,91.4,98.0,-0.9,-0.3,1.07,GOOD
1790979689955,1330,1983.0,-81.51407307642744,32000.0,91.4,98.0,-0.9,-0.3,1.07,GOOD
1790979689955,1331,1987.0,-96.62694007078733,32000.0,91.4,98.0,-0.9,-0.3,1.07,GOOD
1790979689955,1332,2027.0,-98.2581078638384,32000.0,91.4,98.0,-0.9,-0.3,1.07,GOOD
1790979689955,1333,2052.0,-86.45136164741447,32000.0,91.4,98.0,-0.9,-0.3,1.07,GOOD
1790979689955,1334,2050.0,-57.070078264959065,32000.0,91.4,98.0,-0.9,-0.3,1.07,GOOD
1790979689955,1335,1861.0,-28.749401563038745,32000.0,91.4,98.0,-0.9,-0.3,1.07,GOOD
1790979689955,1336,1990.0,-33.7112287157843,32000.0,91.4,98.0,-0.9,-0.3,1.07,GOOD
1790979689955,1337,2055.0,-66.54493594471452,32000.0,91.4,98.0,-0.9,-0.3,1.07,GOOD
1790979689955,1338,2038.0,-85.85829754742292,32000.0,91.4,98.0,-0.9,-0.3,1.07,GOOD
1790979689955,1339,2055.0,-71.1867637330808,32000.0,91.4,98.0,-0.9,-0.3,1.07,GOOD
1790979689955,1340,2071.0,-35.449339374062035,32000.0,91.4,98.0,-0.9,-0.3,1.07,GOOD
1790979689955,1341,2056.0,-0.7172816919574183,32000.0,91.4,98.0,-0.9,-0.3,1.07,GOOD
1790979689955,1342,1933.0,11.38897059542552,32000.0,91.4,98.0,-0.9,-0.3,1.07,GOOD
1790979689955,1343,2096.0,-5.723319270273663,32000.0,91.4,98.0,-0.9,-0.3,1.07,GOOD
1790979689955,1344,2107.0,-25.598828361199804,32000.0,91.4,98.0,-0.9,-0.3,1.07,GOOD
1790979689955,1345,2097.0,-18.882892426365068,32000.0,91.4,98.0,-0.9,-0.3,1.07,GOOD
1790979689955,1346,2074.0,7.878132215249172,32000.0,91.4,98.0,-0.9,-0.3,1.07,GOOD
1790979689955,1347,2082.0,30.48941402200726,32000.0,91.4,98.0,-0.9,-0.3,1.07,GOOD
1790979689955,1348,2117.0,39.45411584919374,32000.0,91.4,98.0,-0.9,-0.3,1.07,GOOD
1790979689955,1349,2129.0,41.902920258940725,32000.0,91.4,98.0,-0.9,-0.3,1.07,GOOD
1790979689955,1350,2115.0,45.672089664460195,32000.0,91.4,98.0,-0.9,-0.3,1.07,GOOD
1790979690024,1351,2125.0,51.22379425599128,32000.0,91.4,98.0,-0.9,-0.3,1.08,GOOD
1790979690024,1352,2142.0,57.72048026398812,32000.0,91.4,98.0,-0.9,-0.3,1.08,GOOD
1790979690024,1353,2210.0,68.26987206016608,32000.0,91.4,98.0,-0.9,-0.3,1.08,GOOD
1790979690024,1354,2215.0,86.55112785779266,32000.0,91.4,98.0,-0.9,-0.3,1.08,GOOD
1790979690024,1355,2213.0,109.82937124091595,32000.0,91.4,98.0,-0.9,-0.3,1.08,GOOD
1790979690024,1356,2195.0,129.7925279409891,32000.0,91.4,98.0,-0.9,-0.3,1.08,GOOD
1790979690024,1357,2238.0,141.98299551914846,32000.0,91.4,98.0,-0.9,-0.3,1.08,GOOD
1790979690024,1358,2266.0,149.88125527646562,32000.0,91.4,98.0,-0.9,-0.3,1.08,GOOD
1790979690024,1359,2294.0,158.87396699760535,32000.0,91.4,98.0,-0.9,-0.3,1.08,GOOD
1790979690024,1360,2270.0,170.0734453562326,32000.0,91.4,98.0,-0.9,-0.3,1.08,GOOD
1790979690024,1361,2265.0,180.74298712107628,32000.0,91.4,98.0,-0.9,-0.3,1.08,GOOD
1790979690024,1362,2223.0,186.14203957347723,32000.0,91.4,98.0,-0.9,-0.3,1.08,GOOD
1790979690024,1363,2205.0,179.16714612476622,32000.0,91.4,98.0,-0.9,-0.3,1.08,GOOD
1790979690024,1364,2172.0,154.47772639506314,32000.0,91.4,98.0,-0.9,-0.3,1.08,GOOD
1790979690024,1365,2149.0,116.08628301786301,32000.0,91.4,98.0,-0.9,-0.3,1.08,GOOD
1790979690024,1366,2106.0,75.98614048979013,32000.0,91.4,98.0,-0.9,-0.3,1.08,GOOD
1790979690024,1367,2147.0,45.73671445814888,32000.0,91.4,98.0,-0.9,-0.3,1.08,GOOD
1790979690024,1368,2085.0,28.525049734004902,32000.0,91.4,98.0,-0.9,-0.3,1.08,GOOD
1790979690024,1369,2074.0,15.126920464624236,32000.0,91.4,98.0,-0.9,-0.3,1.08,GOOD
1790979690024,1370,2070.0,-3.691747321837596,32000.0,91.4,98.0,-0.9,-0.3,1.08,GOOD
1790979690024,1371,2064.0,-23.2474729696006,32000.0,91.4,98.0,-0.9,-0.3,1.08,GOOD
1790979690024,1372,2018.0,-36.34448720306702,32000.0,91.4,98.0,-0.9,-0.3,1.08,GOOD
1790979690024,1373,1850.0,-53.76947426703462,32000.0,91.4,98.0,-0.9,-0.3,1.08,GOOD
1790979690024,1374,1926.0,-93.92931011983765,32000.0,91.4,98.0,-0.9,-0.3,1.08,GOOD
1790979690024,1375,1996.0,-145.3728245066514,32000.0,91.4,98.0,-0.9,-0.3,1.08,GOOD
1790979690256,1376,2016.0,-171.43497623220998,32000.0,91.4,98.0,-0.9,-0.3,1.07,GOOD
1790979690256,1377,2048.0,-155.57279398066157,32000.0,91.4,98.0,-0.9,-0.3,1.07,GOOD
1790979690256,1378,1915.0,-117.51469518814989,32000.0,91.4,98.0,-0.9,-0.3,1.07,GOOD
1790979690256,1379,1889.0,-94.73364124017955,32000.0,91.4,98.0,-0.9,-0.3,1.07,GOOD
1790979690256,1380,1880.0,-109.19697133746706,32000.0,91.4,98.0,-0.9,-0.3,1.07,GOOD
1790979690256,1381,1798.0,-153.49515838740135,32000.0,91.4,98.0,-0.9,-0.3,1.07,GOOD
1790979690256,1382,1777.0,-210.4332265808573,32000.0,91.4,98.0,-0.9,-0.3,1.07,GOOD
1790979690256,1383,1837.0,-260.8617889175077,32000.0,91.4,98.0,-0.9,-0.3,1.07,GOOD
1790979690256,1384,1870.0,-282.2284506739668,32000.0,91.4,98.0,-0.9,-0.3,1.07,GOOD
1790979690256,1385,1888.0,-266.5167433562443,32000.0,91.4,98.0,-0.9,-0.3,1.07,GOOD
1790979690256,1386,1933.0,-227.86639484246393,32000.0,91.4,98.0,-0.9,-0.3,1.07,GOOD
1790979690256,1387,1842.0,-188.42504956585893,32000.0,91.4,98.0,-0.9,-0.3,1.07,GOOD
1790979690256,1388,1995.0,-161.3079644405761,32000.0,91.4,98.0,-0.9,-0.3,1.07,GOOD
1790979690256,1389,1936.0,-141.07631861926603,32000.0,91.4,98.0,-0.9,-0.3,1.07,GOOD
1790979690256,1390,1912.0,-122.95722845454304,32000.0,91.4,98.0,-0.9,-0.3,1.07,GOOD
1790979690256,1391,1931.0,-115.2597283167527,32000.0,91.4,98.0,-0.9,-0.3,1.07,GOOD
1790979690256,1392,1964.0,-116.96410778497302,32000.0,91.4,98.0,-0.9,-0.3,1.07,GOOD
1790979690256,1393,1969.0,-114.62160191321702,32000.0,91.4,98.0,-0.9,-0.3,1.07,GOOD
1790979690256,1394,1929.0,-104.41705429037508,32000.0,91.4,98.0,-0.9,-0.3,1.07,GOOD
1790979690256,1395,1909.0,-97.18091571221257,32000.0,91.4,98.0,-0.9,-0.3,1.07,GOOD
1790979690256,1396,1912.0,-101.79167014448467,32000.0,91.4,98.0,-0.9,-0.3,1.07,GOOD
1790979690256,1397,1840.0,-116.98732597465059,32000.0,91.4,98.0,-0.9,-0.3,1.07,GOOD
1790979690256,1398,1773.0,-142.5944658837086,32000.0,91.4,98.0,-0.9,-0.3,1.07,GOOD
1790979690256,1399,1646.0,-185.3495040311082,32000.0,91.4,98.0,-0.9,-0.3,1.07,GOOD
1790979690256,1400,1665.0,-247.05463157735062,32000.0,91.4,98.0,-0.9,-0.3,1.07,GOOD
1790979690257,1401,1795.0,-306.5858990869818,32000.0,91.4,98.0,-0.9,-0.3,1.07,GOOD
1790979690257,1402,1969.0,-322.5674484288613,32000.0,91.4,98.0,-0.9,-0.3,1.07,GOOD
1790979690257,1403,2019.0,-268.42785198840704,32000.0,91.4,98.0,-0.9,-0.3,1.07,GOOD
1790979690257,1404,2022.0,-161.80252184601875,32000.0,91.4,98.0,-0.9,-0.3,1.07,GOOD
1790979690257,1405,1977.0,-51.99885790338303,32000.0,91.4,98.0,-0.9,-0.3,1.07,GOOD
1790979690257,1406,1932.0,15.031562344123518,32000.0,91.4,98.0,-0.9,-0.3,1.07,GOOD
1790979690257,1407,1947.0,21.73730779977042,32000.0,91.4,98.0,-0.9,-0.3,1.07,GOOD
1790979690257,1408,1950.0,-14.689037199361595,32000.0,91.4,98.0,-0.9,-0.3,1.07,GOOD
1790979690257,1409,1939.0,-58.54171973576538,32000.0,91.4,98.0,-0.9,-0.3,1.07,GOOD
1790979690257,1410,1930.0,-82.55784557401826,32000.0,91.4,98.0,-0.9,-0.3,1.07,GOOD
1790979690257,1411,2013.0,-78.77260940289301,32000.0,91.4,98.0,-0.9,-0.3,1.07,GOOD
1790979690257,1412,2024.0,-53.13914531236371,32000.0,91.4,98.0,-0.9,-0.3,1.07,GOOD
1790979690257,1413,2045.0,-19.956681171413408,32000.0,91.4,98.0,-0.9,-0.3,1.07,GOOD
1790979690257,1414,2041.0,7.972568112477559,32000.0,91.4,98.0,-0.9,-0.3,1.07,GOOD
1790979690257,1415,1953.0,25.152205275563816,32000.0,91.4,98.0,-0.9,-0.3,1.07,GOOD
1790979690257,1416,2006.0,28.209026010165232,32000.0,91.4,98.0,-0.9,-0.3,1.07,GOOD
1790979690257,1417,2015.0,18.99302676816156,32000.0,91.4,98.0,-0.9,-0.3,1.07,GOOD
1790979690257,1418,2022.0,5.848949967662227,32000.0,91.4,98.0,-0.9,-0.3,1.07,GOOD
1790979690257,1419,2033.0,-2.586259420189566,32000.0,91.4,98.0,-0.9,-0.3,1.07,GOOD
1790979690257,1420,1935.0,-2.3189003222280666,32000.0,91.4,98.0,-0.9,-0.3,1.07,GOOD
1790979690257,1421,2025.0,2.32718949258978,32000.0,91.4,98.0,-0.9,-0.3,1.07,GOOD
1790979690257,1422,1955.0,4.007678066453331,32000.0,91.4,98.0,-0.9,-0.3,1.07,GOOD
1790979690257,1423,2018.0,-2.387266282676964,32000.0,91.4,98.0,-0.9,-0.3,1.07,GOOD
1790979690257,1424,2052.0,-11.338512755789852,32000.0,91.4,98.0,-0.9,-0.3,1.07,GOOD
1790979690257,1425,2047.0,-5.870708583391821,32000.0,91.4,98.0,-0.9,-0.3,1.07,GOOD
1790979690549,1426,2019.0,17.990090112979033,32000.0,92.9,98.0,-1.0,-0.2,1.07,GOOD
1790979690549,1427,2017.0,41.736367078256585,32000.0,92.9,98.0,-1.0,-0.2,1.07,GOOD
1790979690549,1428,2017.0,46.55730272621497,32000.0,92.9,98.0,-1.0,-0.2,1.07,GOOD
1790979690549,1429,2038.0,33.4485395487591,32000.0,92.9,98.0,-1.0,-0.2,1.07,GOOD
1790979690549,1430,2036.0,19.97980271855549,32000.0,92.9,98.0,-1.0,-0.2,1.07,GOOD
1790979690549,1431,2017.0,19.41320774780641,32000.0,92.9,98.0,-1.0,-0.2,1.07,GOOD
1790979690549,1432,1968.0,25.33662811996494,32000.0,92.9,98.0,-1.0,-0.2,1.07,GOOD
1790979690549,1433,2022.0,22.743817687814733,32000.0,92.9,98.0,-1.0,-0.2,1.07,GOOD
1790979690549,1434,2035.0,11.711540129838722,32000.0,92.9,98.0,-1.0,-0.2,1.07,GOOD
1790979690549,1435,2019.0,5.485915638990799,32000.0,92.9,98.0,-1.0,-0.2,1.07,GOOD
1790979690549,1436,2003.0,9.557421156724638,32000.0,92.9,98.0,-1.0,-0.2,1.07,GOOD
1790979690549,1437,2013.0,17.65948141809095,32000.0,92.9,98.0,-1.0,-0.2,1.07,GOOD
1790979690549,1438,2012.0,21.90013513609607,32000.0,92.9,98.0,-1.0,-0.2,1.07,GOOD
1790979690549,1439,1979.0,17.71821166000133,32000.0,92.9,98.0,-1.0,-0.2,1.07,GOOD
1790979690549,1440,1921.0,3.0200516416155847,32000.0,92.9,98.0,-1.0,-0.2,1.07,GOOD
1790979690549,1441,1872.0,-22.337851101801313,32000.0,92.9,98.0,-1.0,-0.2,1.07,GOOD
1790979690549,1442,1854.0,-55.82919827900078,32000.0,92.9,98.0,-1.0,-0.2,1.07,GOOD
1790979690549,1443,2025.0,-85.43028872060108,32000.0,92.9,98.0,-1.0,-0.2,1.07,GOOD
1790979690549,1444,2010.0,-89.6282277795276,32000.0,92.9,98.0,-1.0,-0.2,1.07,GOOD
1790979690549,1445,2013.0,-61.60883141543344,32000.0,92.9,98.0,-1.0,-0.2,1.07,GOOD
1790979690549,1446,2011.0,-18.121596900221526,32000.0,92.9,98.0,-1.0,-0.2,1.07,GOOD
1790979690549,1447,1996.0,20.44934558962964,32000.0,92.9,98.0,-1.0,-0.2,1.07,GOOD
