timestamp_ms,sample_seq,ecg_raw,ecg_cleaned,ppg_dc_ir,ecg_bpm,spo2_pct,pitch_deg,roll_deg,motion_g,signal_quality
1790985818558,1,2086.0,82.08700115287917,-21.0,78.4,98.0,-1.4,-0.3,1.08,GOOD
1790985818558,2,2062.0,428.33804519097293,-22.0,78.4,98.0,-1.4,-0.3,1.08,GOOD
1790985818558,3,2059.0,1044.6140642926846,-23.0,78.4,98.0,-1.4,-0.3,1.08,GOOD
1790985818558,4,2072.0,1667.87221438122,-21.0,78.4,98.0,-1.4,-0.3,1.08,GOOD
1790985818558,5,2071.0,2068.281565687911,-22.0,78.4,98.0,-1.4,-0.3,1.08,GOOD
1790985818558,6,2097.0,2197.6926895815786,-23.0,78.4,98.0,-1.4,-0.3,1.08,GOOD
1790985818558,7,2078.0,2115.4535070117704,-23.0,78.4,98.0,-1.4,-0.3,1.08,GOOD
1790985818558,8,2077.0,1935.7488380473826,-22.0,78.4,98.0,-1.4,-0.3,1.08,GOOD
1790985818558,9,2084.0,1787.696982138633,-24.0,78.4,98.0,-1.4,-0.3,1.08,GOOD
1790985818558,10,1917.0,1737.838790257309,-22.0,78.4,98.0,-1.4,-0.3,1.08,GOOD
1790985818558,11,2026.0,1743.4701256283927,-19.0,78.4,98.0,-1.4,-0.3,1.08,GOOD
1790985818558,12,2011.0,1723.223612898348,-19.0,78.4,98.0,-1.4,-0.3,1.08,GOOD
1790985818558,13,2015.0,1654.2221870510227,-21.0,78.4,98.0,-1.4,-0.3,1.08,GOOD
1790985818558,14,2133.0,1586.4041818308572,-21.0,78.4,98.0,-1.4,-0.3,1.08,GOOD
1790985818558,15,2130.0,1580.281233963663,-21.0,78.4,98.0,-1.4,-0.3,1.08,GOOD
1790985818558,16,2135.0,1627.354225149727,-23.0,78.4,98.0,-1.4,-0.3,1.08,GOOD
1790985818558,17,2111.0,1656.0603441003925,-23.0,78.4,98.0,-1.4,-0.3,1.08,GOOD
1790985818558,18,2030.0,1619.5911119986413,-23.0,78.4,98.0,-1.4,-0.3,1.08,GOOD
1790985818558,19,2042.0,1541.7826056082433,-21.0,78.4,98.0,-1.4,-0.3,1.08,GOOD
1790985818558,20,2057.0,1477.228591054926,-21.0,78.4,98.0,-1.4,-0.3,1.08,GOOD
1790985818558,21,2050.0,1444.55270139903,-21.0,78.4,98.0,-1.4,-0.3,1.08,GOOD
1790985818558,22,2062.0,1415.270895384388,-22.0,78.4,98.0,-1.4,-0.3,1.08,GOOD
1790985818558,23,2062.0,1368.3882458940652,-23.0,78.4,98.0,-1.4,-0.3,1.08,GOOD
1790985818558,24,2085.0,1324.3633898270286,-23.0,78.4,98.0,-1.4,-0.3,1.08,GOOD
1790985818558,25,2070.0,1310.515402391968,-21.0,78.4,98.0,-1.4,-0.3,1.08,GOOD
1790985818559,26,2120.0,1317.5152997827004,32000.0,78.4,98.0,-1.4,-0.3,1.08,GOOD
1790985818559,27,2106.0,1311.4975049759169,32000.0,78.4,98.0,-1.4,-0.3,1.08,GOOD
1790985818559,28,2106.0,1277.783447071311,32000.0,78.4,98.0,-1.4,-0.3,1.08,GOOD
1790985818559,29,2120.0,1236.860274732606,32000.0,78.4,98.0,-1.4,-0.3,1.08,GOOD
1790985818559,30,2109.0,1215.3175691541837,32000.0,78.4,98.0,-1.4,-0.3,1.08,GOOD
1790985818559,31,2097.0,1208.314506338319,32000.0,78.4,98.0,-1.4,-0.3,1.08,GOOD
1790985818559,32,2094.0,1186.9689201947222,32000.0,78.4,98.0,-1.4,-0.3,1.08,GOOD
1790985818559,33,2079.0,1139.7721872989819,32000.0,78.4,98.0,-1.4,-0.3,1.08,GOOD
1790985818559,34,1972.0,1082.6993961612247,32000.0,78.4,98.0,-1.4,-0.3,1.08,GOOD
1790985818559,35,2041.0,1033.0507780341297,32000.0,78.4,98.0,-1.4,-0.3,1.08,GOOD
1790985818559,36,2017.0,994.2191702018149,32000.0,78.4,98.0,-1.4,-0.3,1.08,GOOD
1790985818559,37,1996.0,956.5369297064365,32000.0,78.4,98.0,-1.4,-0.3,1.08,GOOD
1790985818559,38,2088.0,914.8739176534189,32000.0,78.4,98.0,-1.4,-0.3,1.08,GOOD
1790985818559,39,2074.0,886.6209179377103,32000.0,78.4,98.0,-1.4,-0.3,1.08,GOOD
1790985818559,40,2091.0,886.8386670094131,32000.0,78.4,98.0,-1.4,-0.3,1.08,GOOD
1790985818559,41,2066.0,899.9451905294774,32000.0,78.4,98.0,-1.4,-0.3,1.08,GOOD
1790985818559,42,2072.0,896.9628963658868,32000.0,78.4,98.0,-1.4,-0.3,1.08,GOOD
1790985818559,43,2100.0,869.060946238599,32000.0,78.4,98.0,-1.4,-0.3,1.08,GOOD
1790985818559,44,2117.0,835.0232321807268,32000.0,78.4,98.0,-1.4,-0.3,1.08,GOOD
1790985818559,45,2124.0,815.7850433801831,32000.0,78.4,98.0,-1.4,-0.3,1.08,GOOD
1790985818559,46,2102.0,810.1180195748096,32000.0,78.4,98.0,-1.4,-0.3,1.08,GOOD
1790985818559,47,2095.0,800.2141628942479,32000.0,78.4,98.0,-1.4,-0.3,1.08,GOOD
1790985818559,48,2089.0,774.8100146380566,32000.0,78.4,98.0,-1.4,-0.3,1.08,GOOD
1790985818559,49,2101.0,740.0495215954604,32000.0,78.4,98.0,-1.4,-0.3,1.08,GOOD
1790985818559,50,2225.0,713.6820121538643,32000.0,78.4,98.0,-1.4,-0.3,1.08,GOOD
1790985818690,51,2226.0,711.5840444397962,32000.0,78.5,98.0,-1.4,-0.3,1.08,GOOD
1790985818690,52,2223.0,729.8773363864016,32000.0,78.5,98.0,-1.4,-0.3,1.08,GOOD
1790985818690,53,2131.0,744.1401025551969,32000.0,78.5,98.0,-1.4,-0.3,1.08,GOOD
1790985818690,54,2154.0,732.4933940487696,32000.0,78.5,98.0,-1.4,-0.3,1.08,GOOD
1790985818690,55,2149.0,694.7742280324132,32000.0,78.5,98.0,-1.4,-0.3,1.08,GOOD
1790985818690,56,2132.0,645.767063089337,32000.0,78.5,98.0,-1.4,-0.3,1.08,GOOD
1790985818690,57,2079.0,596.2826293650439,32000.0,78.5,98.0,-1.4,-0.3,1.08,GOOD
1790985818690,58,2080.0,550.1394025260374,32000.0,78.5,98.0,-1.4,-0.3,1.08,GOOD
1790985818690,59,2075.0,510.8571862879743,32000.0,78.5,98.0,-1.4,-0.3,1.08,GOOD
1790985818690,60,2072.0,479.3565483941025,32000.0,78.5,98.0,-1.4,-0.3,1.08,GOOD
1790985818690,61,1973.0,447.537374195481,32000.0,78.5,98.0,-1.4,-0.3,1.08,GOOD
1790985818690,62,1947.0,403.61249770735486,32000.0,78.5,98.0,-1.4,-0.3,1.08,GOOD
1790985818690,63,1969.0,349.34648326016804,32000.0,78.5,98.0,-1.4,-0.3,1.08,GOOD
1790985818690,64,1976.0,301.10347045378654,32000.0,78.5,98.0,-1.4,-0.3,1.08,GOOD
1790985818690,65,2090.0,273.253625822609,32000.0,78.5,98.0,-1.4,-0.3,1.08,GOOD
1790985818690,66,2079.0,271.6693579083436,32000.0,78.5,98.0,-1.4,-0.3,1.08,GOOD
1790985818690,67,2082.0,291.24815910142377,32000.0,78.5,98.0,-1.4,-0.3,1.08,GOOD
1790985818690,68,2097.0,317.049841274305,32000.0,78.5,98.0,-1.4,-0.3,1.08,GOOD
1790985818690,69,2036.0,331.8264680575019,32000.0,78.5,98.0,-1.4,-0.3,1.08,GOOD
1790985818690,70,2030.0,319.7950804570635,32000.0,78.5,98.0,-1.4,-0.3,1.08,GOOD
1790985818690,71,2034.0,279.4661566658969,32000.0,78.5,98.0,-1.4,-0.3,1.08,GOOD
1790985818690,72,2034.0,231.32940464720014,32000.0,78.5,98.0,-1.4,-0.3,1.08,GOOD
1790985818690,73,2029.0,197.92251814731694,32000.0,78.5,98.0,-1.4,-0.3,1.08,GOOD
1790985818690,74,2042.0,183.25835493566916,32000.0,78.5,98.0,-1.4,-0.3,1.08,GOOD
1790985818690,75,2039.0,175.9346519269988,32000.0,78.5,98.0,-1.4,-0.3,1.08,GOOD
1790985818690,76,2050.0,165.542368587921,32000.0,78.5,98.0,-1.4,-0.3,1.08,GOOD
1790985818690,77,2528.0,171.64739243099018,32000.0,78.5,98.0,-1.4,-0.3,1.08,GOOD
1790985818690,78,2549.0,243.0023993931094,32000.0,78.5,98.0,-1.4,-0.3,1.08,GOOD
1790985818690,79,2584.0,384.0662959586002,32000.0,78.5,98.0,-1.4,-0.3,1.08,GOOD
1790985818690,80,2627.0,532.1809379328539,32000.0,78.5,98.0,-1.4,-0.3,1.08,GOOD
1790985818690,81,3069.0,649.1603934974889,32000.0,78.5,98.0,-1.4,-0.3,1.08,GOOD
1790985818690,82,3017.0,758.9582537866175,32000.0,78.5,98.0,-1.4,-0.3,1.08,GOOD
1790985818690,83,2986.0,868.3421564826535,32000.0,78.5,98.0,-1.4,-0.3,1.08,GOOD
1790985818690,84,2966.0,938.9283456643607,32000.0,78.5,98.0,-1.4,-0.3,1.08,GOOD
1790985818690,85,1852.0,906.6068424805039,32000.0,78.5,98.0,-1.4,-0.3,1.08,GOOD
1790985818690,86,1854.0,690.6235241279882,32000.0,78.5,98.0,-1.4,-0.3,1.08,GOOD
1790985818690,87,1798.0,307.03047734946443,32000.0,78.5,98.0,-1.4,-0.3,1.08,GOOD
1790985818690,88,1789.0,-93.76780470922998,32000.0,78.5,98.0,-1.4,-0.3,1.08,GOOD
1790985818690,89,2151.0,-360.61429801079623,32000.0,78.5,98.0,-1.4,-0.3,1.08,GOOD
1790985818690,90,2216.0,-414.6382446479685,32000.0,78.5,98.0,-1.4,-0.3,1.08,GOOD
1790985818690,91,2196.0,-276.6803189930918,32000.0,78.5,98.0,-1.4,-0.3,1.08,GOOD
1790985818690,92,2164.0,-71.18125438069366,32000.0,78.5,98.0,-1.4,-0.3,1.08,GOOD
1790985818690,93,2069.0,61.628489310299265,32000.0,78.5,98.0,-1.4,-0.3,1.08,GOOD
1790985818690,94,2109.0,61.91600150032403,32000.0,78.5,98.0,-1.4,-0.3,1.08,GOOD
1790985818690,95,2138.0,-24.29919963979672,32000.0,78.5,98.0,-1.4,-0.3,1.08,GOOD
1790985818690,96,2136.0,-104.56534309315708,32000.0,78.5,98.0,-1.4,-0.3,1.08,GOOD
1790985818690,97,2033.0,-133.25447034814658,32000.0,78.5,98.0,-1.4,-0.3,1.08,GOOD
1790985818690,98,2018.0,-138.09168277703833,32000.0,78.5,98.0,-1.4,-0.3,1.08,GOOD
1790985818690,99,2038.0,-161.0283895731891,32000.0,78.5,98.0,-1.4,-0.3,1.08,GOOD
1790985818690,100,2056.0,-202.60178114637006,32000.0,78.5,98.0,-1.4,-0.3,1.08,GOOD
1790985818872,101,2062.0,-233.22046676807088,32000.0,78.5,98.0,-1.3,-0.3,1.08,GOOD
1790985818872,102,2025.0,-236.92158742122672,32000.0,78.5,98.0,-1.3,-0.3,1.08,GOOD
1790985818872,103,2012.0,-229.71042714432187,32000.0,78.5,98.0,-1.3,-0.3,1.08,GOOD
1790985818872,104,2037.0,-235.89613015646916,32000.0,78.5,98.0,-1.3,-0.3,1.08,GOOD
1790985818872,105,2176.0,-252.10074999809802,32000.0,78.5,98.0,-1.3,-0.3,1.08,GOOD
1790985818872,106,2170.0,-248.9924300052131,32000.0,78.5,98.0,-1.3,-0.3,1.08,GOOD
1790985818872,107,2149.0,-214.57507548006873,32000.0,78.5,98.0,-1.3,-0.3,1.08,GOOD
1790985818872,108,2136.0,-173.3716394850721,32000.0,78.5,98.0,-1.3,-0.3,1.08,GOOD
1790985818872,109,2199.0,-153.29960466615145,32000.0,78.5,98.0,-1.3,-0.3,1.08,GOOD
1790985818872,110,2207.0,-155.7033126633437,32000.0,78.5,98.0,-1.3,-0.3,1.08,GOOD
1790985818872,111,2206.0,-164.33100643096589,32000.0,78.5,98.0,-1.3,-0.3,1.08,GOOD
1790985818872,112,2187.0,-167.5014219138858,32000.0,78.5,98.0,-1.3,-0.3,1.08,GOOD
1790985818872,113,2038.0,-171.98496784315392,32000.0,78.5,98.0,-1.3,-0.3,1.08,GOOD
1790985818872,114,2058.0,-198.51420847133318,32000.0,78.5,98.0,-1.3,-0.3,1.08,GOOD
1790985818872,115,2047.0,-252.61190156152907,32000.0,78.5,98.0,-1.3,-0.3,1.08,GOOD
1790985818872,116,2049.0,-313.12123183903816,32000.0,78.5,98.0,-1.3,-0.3,1.08,GOOD
1790985818872,117,2238.0,-347.8903075659463,32000.0,78.5,98.0,-1.3,-0.3,1.08,GOOD
1790985818872,118,2232.0,-330.9728950190728,32000.0,78.5,98.0,-1.3,-0.3,1.08,GOOD
1790985818872,119,2256.0,-269.378027276425,32000.0,78.5,98.0,-1.3,-0.3,1.08,GOOD
1790985818872,120,2271.0,-201.840122026976,32000.0,78.5,98.0,-1.3,-0.3,1.08,GOOD
1790985818872,121,2184.0,-162.64442399288447,32000.0,78.5,98.0,-1.3,-0.3,1.08,GOOD
1790985818872,122,2161.0,-165.36402320798086,32000.0,78.5,98.0,-1.3,-0.3,1.08,GOOD
1790985818872,123,2153.0,-202.471813020534,32000.0,78.5,98.0,-1.3,-0.3,1.08,GOOD
1790985818872,124,2159.0,-251.24221157850207,32000.0,78.5,98.0,-1.3,-0.3,1.08,GOOD
1790985818872,125,2309.0,-285.3720483862162,32000.0,78.5,98.0,-1.3,-0.3,1.08,GOOD
1790985818964,126,2304.0,-283.58606225732717,32000.0,78.5,98.0,-1.5,-0.3,1.08,GOOD
1790985818964,127,2293.0,-247.0522094892728,32000.0,78.5,98.0,-1.5,-0.3,1.08,GOOD
1790985818964,128,2294.0,-201.6426031884908,32000.0,78.5,98.0,-1.5,-0.3,1.08,GOOD
1790985818964,129,2415.0,-167.66412562444748,32000.0,78.5,98.0,-1.5,-0.3,1.08,GOOD
1790985818964,130,2406.0,-144.2687041468851,32000.0,78.5,98.0,-1.5,-0.3,1.08,GOOD
1790985818964,131,2411.0,-127.032860387489,32000.0,78.5,98.0,-1.5,-0.3,1.08,GOOD
1790985818964,132,2394.0,-117.15691437421444,32000.0,78.5,98.0,-1.5,-0.3,1.08,GOOD
1790985818964,133,2423.0,-112.58618620358422,32000.0,78.5,98.0,-1.5,-0.3,1.08,GOOD
1790985818964,134,2311.0,-113.82848494431025,32000.0,78.5,98.0,-1.5,-0.3,1.08,GOOD
1790985818964,135,2465.0,-127.5021305893393,32000.0,78.5,98.0,-1.5,-0.3,1.08,GOOD
1790985818964,136,2461.0,-145.4959178347289,32000.0,78.5,98.0,-1.5,-0.3,1.08,GOOD
1790985818964,137,2142.0,-161.54434929819908,32000.0,78.5,98.0,-1.5,-0.3,1.08,GOOD
1790985818964,138,2282.0,-194.8465252925907,32000.0,78.5,98.0,-1.5,-0.3,1.08,GOOD
1790985818964,139,2280.0,-246.41066133863933,32000.0,78.5,98.0,-1.5,-0.3,1.08,GOOD
1790985818964,140,2274.0,-291.10692439874236,32000.0,78.5,98.0,-1.5,-0.3,1.08,GOOD
1790985818964,141,2219.0,-322.54826393271435,32000.0,78.5,98.0,-1.5,-0.3,1.08,GOOD
1790985818964,142,2208.0,-347.9271507585446,32000.0,78.5,98.0,-1.5,-0.3,1.08,GOOD
1790985818964,143,2192.0,-365.2845466238516,32000.0,78.5,98.0,-1.5,-0.3,1.08,GOOD
1790985818964,144,2173.0,-374.08793958499086,32000.0,78.5,98.0,-1.5,-0.3,1.08,GOOD
1790985818964,145,1963.0,-394.65933614526205,32000.0,78.5,98.0,-1.5,-0.3,1.08,GOOD
1790985818964,146,1908.0,-456.6609630740312,32000.0,78.5,98.0,-1.5,-0.3,1.08,GOOD
1790985818964,147,1981.0,-552.5087850863706,32000.0,78.5,98.0,-1.5,-0.3,1.08,GOOD
1790985818964,148,1970.0,-631.6402480328143,32000.0,78.5,98.0,-1.5,-0.3,1.08,GOOD
1790985818964,149,1907.0,-663.951711158123,32000.0,78.5,98.0,-1.5,-0.3,1.08,GOOD
1790985818964,150,1892.0,-670.0394695978381,32000.0,78.5,98.0,-1.5,-0.3,1.08,GOOD
1790985819055,151,1882.0,-678.6745345743233,32000.0,78.5,98.0,-1.4,-0.4,1.08,GOOD
1790985819055,152,1857.0,-694.164701941899,32000.0,78.5,98.0,-1.4,-0.4,1.08,GOOD
1790985819055,153,2081.0,-699.7974955299737,32000.0,78.5,98.0,-1.4,-0.4,1.08,GOOD
1790985819055,154,1966.0,-677.3385508283844,32000.0,78.5,98.0,-1.4,-0.4,1.08,GOOD
1790985819055,155,2061.0,-634.1731826081524,32000.0,78.5,98.0,-1.4,-0.4,1.08,GOOD
1790985819055,156,2086.0,-589.8387842575821,32000.0,78.5,98.0,-1.4,-0.4,1.08,GOOD
1790985819055,157,2087.0,-548.5890271338008,32000.0,78.5,98.0,-1.4,-0.4,1.08,GOOD
1790985819055,158,2073.0,-513.6793024690292,32000.0,78.5,98.0,-1.4,-0.4,1.08,GOOD
1790985819055,159,2066.0,-496.3169331611964,32000.0,78.5,98.0,-1.4,-0.4,1.08,GOOD
1790985819055,160,2066.0,-500.3451249997159,32000.0,78.5,98.0,-1.4,-0.4,1.08,GOOD
1790985819055,161,1927.0,-520.7721510664214,32000.0,78.5,98.0,-1.4,-0.4,1.08,GOOD
1790985819055,162,1937.0,-554.5737354751769,32000.0,78.5,98.0,-1.4,-0.4,1.08,GOOD
1790985819055,163,1921.0,-596.3424406497052,32000.0,78.5,98.0,-1.4,-0.4,1.08,GOOD
1790985819055,164,1936.0,-634.366941563102,32000.0,78.5,98.0,-1.4,-0.4,1.08,GOOD
1790985819055,165,2031.0,-655.7935937254799,32000.0,78.5,98.0,-1.4,-0.4,1.08,GOOD
1790985819055,166,2052.0,-647.3369327162081,32000.0,78.5,98.0,-1.4,-0.4,1.08,GOOD
1790985819055,167,2037.0,-607.9437137319792,32000.0,78.5,98.0,-1.4,-0.4,1.08,GOOD
1790985819055,168,2018.0,-559.4203131011438,32000.0,78.5,98.0,-1.4,-0.4,1.08,GOOD
1790985819055,169,1999.0,-529.8166077723486,32000.0,78.5,98.0,-1.4,-0.4,1.08,GOOD
1790985819055,170,2010.0,-530.3996732181322,32000.0,78.5,98.0,-1.4,-0.4,1.08,GOOD
1790985819055,171,2010.0,-549.7511295064578,32000.0,78.5,98.0,-1.4,-0.4,1.08,GOOD
1790985819055,172,2014.0,-567.1721784805319,32000.0,78.5,98.0,-1.4,-0.4,1.08,GOOD
1790985819055,173,2078.0,-568.2169963066704,32000.0,78.5,98.0,-1.4,-0.4,1.08,GOOD
1790985819055,174,2076.0,-550.0687537199742,32000.0,78.5,98.0,-1.4,-0.4,1.08,GOOD
1790985819055,175,2086.0,-522.1286161011076,32000.0,78.5,98.0,-1.4,-0.4,1.08,GOOD
1790985819133,176,2100.0,-497.14916556942177,32000.0,78.5,98.0,-1.4,-0.3,1.08,GOOD
1790985819133,177,2110.0,-478.9279873433104,32000.0,78.5,98.0,-1.4,-0.3,1.08,GOOD
1790985819133,178,2095.0,-465.6617500812513,32000.0,78.5,98.0,-1.4,-0.3,1.08,GOOD
1790985819133,179,2097.0,-458.63334805245705,32000.0,78.5,98.0,-1.4,-0.3,1.08,GOOD
1790985819133,180,2096.0,-459.49233678082027,32000.0,78.5,98.0,-1.4,-0.3,1.08,GOOD
1790985819133,181,2060.0,-466.3561381505272,32000.0,78.5,98.0,-1.4,-0.3,1.08,GOOD
1790985819133,182,2053.0,-476.8576033719421,32000.0,78.5,98.0,-1.4,-0.3,1.08,GOOD
1790985819133,183,2023.0,-489.98656387281113,32000.0,78.5,98.0,-1.4,-0.3,1.08,GOOD
1790985819133,184,2022.0,-505.4100857275579,32000.0,78.5,98.0,-1.4,-0.3,1.08,GOOD
1790985819133,185,1996.0,-522.5218809473187,32000.0,78.5,98.0,-1.4,-0.3,1.08,GOOD
1790985819133,186,2011.0,-538.6057973369891,32000.0,78.5,98.0,-1.4,-0.3,1.08,GOOD
1790985819133,187,2018.0,-548.2591232011827,32000.0,78.5,98.0,-1.4,-0.3,1.08,GOOD
1790985819133,188,1987.0,-548.9460287390784,32000.0,78.5,98.0,-1.4,-0.3,1.08,GOOD
1790985819133,189,2019.0,-545.0096347824638,32000.0,78.5,98.0,-1.4,-0.3,1.08,GOOD
1790985819133,190,2026.0,-539.8660726222001,32000.0,78.5,98.0,-1.4,-0.3,1.08,GOOD
1790985819133,191,2042.0,-531.8778883784497,32000.0,78.5,98.0,-1.4,-0.3,1.08,GOOD
1790985819133,192,2044.0,-520.017672885263,32000.0,78.5,98.0,-1.4,-0.3,1.08,GOOD
1790985819133,193,2079.0,-505.0245651780133,32000.0,78.5,98.0,-1.4,-0.3,1.08,GOOD
1790985819133,194,2078.0,-487.41814196477895,32000.0,78.5,98.0,-1.4,-0.3,1.08,GOOD
1790985819133,195,2082.0,-469.53541529974996,32000.0,78.5,98.0,-1.4,-0.3,1.08,GOOD
1790985819133,196,2086.0,-455.4811622446541,32000.0,78.5,98.0,-1.4,-0.3,1.08,GOOD
1790985819133,197,2128.0,-445.2888979497019,32000.0,78.5,98.0,-1.4,-0.3,1.08,GOOD
1790985819133,198,2087.0,-435.5964372227345,32000.0,78.5,98.0,-1.4,-0.3,1.08,GOOD
1790985819133,199,2100.0,-427.4224795394924,32000.0,78.5,98.0,-1.4,-0.3,1.08,GOOD
1790985819133,200,2111.0,-423.1601583440347,32000.0,78.5,98.0,-1.4,-0.3,1.08,GOOD
1790985819297,201,2129.0,-419.7903544413991,32000.0,78.5,98.0,-1.4,-0.4,1.09,GOOD
1790985819297,202,2126.0,-413.6835974218968,32000.0,78.5,98.0,-1.4,-0.4,1.09,GOOD
1790985819297,203,2115.0,-406.1458030626043,32000.0,78.5,98.0,-1.4,-0.4,1.09,GOOD
1790985819297,204,2112.0,-400.81726483365054,32000.0,78.5,98.0,-1.4,-0.4,1.09,GOOD
1790985819297,205,2052.0,-401.4134134614435,32000.0,78.5,98.0,-1.4,-0.4,1.09,GOOD
1790985819297,206,2059.0,-411.9330154260028,32000.0,78.5,98.0,-1.4,-0.4,1.09,GOOD
1790985819297,207,2057.0,-431.05262741110676,32000.0,78.5,98.0,-1.4,-0.4,1.09,GOOD
1790985819297,208,2037.0,-450.8274687112963,32000.0,78.5,98.0,-1.4,-0.4,1.09,GOOD
1790985819297,209,1898.0,-470.36175476443674,32000.0,78.5,98.0,-1.4,-0.4,1.09,GOOD
1790985819297,210,1865.0,-500.9176717092083,32000.0,78.5,98.0,-1.4,-0.4,1.09,GOOD
1790985819297,211,1903.0,-545.2131158918139,32000.0,78.5,98.0,-1.4,-0.4,1.09,GOOD
1790985819297,212,1899.0,-586.8093626650098,32000.0,78.5,98.0,-1.4,-0.4,1.09,GOOD
1790985819297,213,2157.0,-600.152216210201,32000.0,78.5,98.0,-1.4,-0.4,1.09,GOOD
1790985819297,214,2156.0,-560.4391819959754,32000.0,78.5,98.0,-1.4,-0.4,1.09,GOOD
1790985819297,215,2183.0,-470.00369138473246,32000.0,78.5,98.0,-1.4,-0.4,1.09,GOOD
1790985819297,216,2188.0,-367.3168704551952,32000.0,78.5,98.0,-1.4,-0.4,1.09,GOOD
1790985819297,217,2047.0,-298.1166442586565,32000.0,78.5,98.0,-1.4,-0.4,1.09,GOOD
1790985819297,218,2073.0,-290.6411616920842,32000.0,78.5,98.0,-1.4,-0.4,1.09,GOOD
1790985819297,219,2067.0,-335.3754518424298,32000.0,78.5,98.0,-1.4,-0.4,1.09,GOOD
1790985819297,220,2077.0,-390.6731602314052,32000.0,78.5,98.0,-1.4,-0.4,1.09,GOOD
1790985819297,221,2172.0,-417.88666251262504,32000.0,78.5,98.0,-1.4,-0.4,1.09,GOOD
1790985819297,222,2157.0,-402.96194503714554,32000.0,78.5,98.0,-1.4,-0.4,1.09,GOOD
1790985819297,223,2136.0,-362.32283990434087,32000.0,78.5,98.0,-1.4,-0.4,1.09,GOOD
1790985819297,224,2129.0,-327.39982042500617,32000.0,78.5,98.0,-1.4,-0.4,1.09,GOOD
1790985819297,225,2145.0,-313.82842302557174,32000.0,78.5,98.0,-1.4,-0.4,1.09,GOOD
1790985819396,226,2140.0,-315.240434694914,32000.0,79.2,98.0,-1.4,-0.4,1.08,GOOD
1790985819396,227,2128.0,-321.3249117073449,32000.0,79.2,98.0,-1.4,-0.4,1.08,GOOD
1790985819396,228,2104.0,-329.09136433715196,32000.0,79.2,98.0,-1.4,-0.4,1.08,GOOD
1790985819396,229,2025.0,-341.8588089052794,32000.0,79.2,98.0,-1.4,-0.4,1.08,GOOD
1790985819396,230,2055.0,-362.7477843294906,32000.0,79.2,98.0,-1.4,-0.4,1.08,GOOD
1790985819396,231,2058.0,-386.00038168179714,32000.0,79.2,98.0,-1.4,-0.4,1.08,GOOD
1790985819396,232,2046.0,-402.06788209425054,32000.0,79.2,98.0,-1.4,-0.4,1.08,GOOD
1790985819396,233,2051.0,-408.87734660953197,32000.0,79.2,98.0,-1.4,-0.4,1.08,GOOD
1790985819396,234,2057.0,-407.8895942369843,32000.0,79.2,98.0,-1.4,-0.4,1.08,GOOD
1790985819396,235,2059.0,-399.5036820389926,32000.0,79.2,98.0,-1.4,-0.4,1.08,GOOD
1790985819396,236,2065.0,-387.20256390949163,32000.0,79.2,98.0,-1.4,-0.4,1.08,GOOD
1790985819396,237,2187.0,-372.45865646603147,32000.0,79.2,98.0,-1.4,-0.4,1.08,GOOD
1790985819396,238,2239.0,-345.5932084760019,32000.0,79.2,98.0,-1.4,-0.4,1.08,GOOD
1790985819396,239,2246.0,-298.5150901524662,32000.0,79.2,98.0,-1.4,-0.4,1.08,GOOD
1790985819396,240,2265.0,-240.67366936480258,32000.0,79.2,98.0,-1.4,-0.4,1.08,GOOD
1790985819396,241,2042.0,-199.13971439448346,32000.0,79.2,98.0,-1.4,-0.4,1.08,GOOD
1790985819396,242,2173.0,-201.5195282429811,32000.0,79.2,98.0,-1.4,-0.4,1.08,GOOD
1790985819396,243,2136.0,-241.40344798247793,32000.0,79.2,98.0,-1.4,-0.4,1.08,GOOD
1790985819396,244,2130.0,-284.86460220543256,32000.0,79.2,98.0,-1.4,-0.4,1.08,GOOD
1790985819396,245,2059.0,-313.01410992590894,32000.0,79.2,98.0,-1.4,-0.4,1.08,GOOD
1790985819396,246,2082.0,-327.60050903715205,32000.0,79.2,98.0,-1.4,-0.4,1.08,GOOD
1790985819396,247,2043.0,-335.21647531676814,32000.0,79.2,98.0,-1.4,-0.4,1.08,GOOD
1790985819396,248,2027.0,-344.5195647845127,32000.0,79.2,98.0,-1.4,-0.4,1.08,GOOD
1790985819396,249,1983.0,-363.54445629935265,32000.0,79.2,98.0,-1.4,-0.4,1.08,GOOD
1790985819396,250,2010.0,-389.3657981538008,32000.0,79.2,98.0,-1.4,-0.4,1.08,GOOD
1790985819474,251,2034.0,-406.56137707235155,32000.0,79.2,98.0,-1.4,-0.3,1.09,GOOD
1790985819474,252,2014.0,-404.6445677558569,32000.0,79.2,98.0,-1.4,-0.3,1.09,GOOD
1790985819474,253,2106.0,-388.2792024467718,32000.0,79.2,98.0,-1.4,-0.3,1.09,GOOD
1790985819474,254,2105.0,-363.69112083299524,32000.0,79.2,98.0,-1.4,-0.3,1.09,GOOD
1790985819474,255,2146.0,-331.74125691845677,32000.0,79.2,98.0,-1.4,-0.3,1.09,GOOD
1790985819474,256,2146.0,-294.78844630511134,32000.0,79.2,98.0,-1.4,-0.3,1.09,GOOD
1790985819474,257,2112.0,-261.43877999011596,32000.0,79.2,98.0,-1.4,-0.3,1.09,GOOD
1790985819474,258,2105.0,-244.98786872777595,32000.0,79.2,98.0,-1.4,-0.3,1.09,GOOD
1790985819474,259,2122.0,-249.84671696364654,32000.0,79.2,98.0,-1.4,-0.3,1.09,GOOD
1790985819474,260,2146.0,-263.0259980823108,32000.0,79.2,98.0,-1.4,-0.3,1.09,GOOD
1790985819474,261,2376.0,-258.02463895223286,32000.0,79.2,98.0,-1.4,-0.3,1.09,GOOD
1790985819474,262,2526.0,-203.8333293488753,32000.0,79.2,98.0,-1.4,-0.3,1.09,GOOD
1790985819474,263,2551.0,-93.7760995748327,32000.0,79.2,98.0,-1.4,-0.3,1.09,GOOD
1790985819474,264,2586.0,37.23298376017485,32000.0,79.2,98.0,-1.4,-0.3,1.09,GOOD
1790985819474,265,2793.0,152.5205568689055,32000.0,79.2,98.0,-1.4,-0.3,1.09,GOOD
1790985819474,266,2902.0,252.18684174712362,32000.0,79.2,98.0,-1.4,-0.3,1.09,GOOD
1790985819474,267,2705.0,338.9080963376696,32000.0,79.2,98.0,-1.4,-0.3,1.09,GOOD
1790985819474,268,2707.0,384.0579993540381,32000.0,79.2,98.0,-1.4,-0.3,1.09,GOOD
1790985819474,269,2096.0,347.82916321347307,32000.0,79.2,98.0,-1.4,-0.3,1.09,GOOD
1790985819474,270,2120.0,203.9285673670371,32000.0,79.2,98.0,-1.4,-0.3,1.09,GOOD
1790985819474,271,2113.0,-17.627992159812486,32000.0,79.2,98.0,-1.4,-0.3,1.09,GOOD
1790985819474,272,2095.0,-229.71784567589748,32000.0,79.2,98.0,-1.4,-0.3,1.09,GOOD
1790985819474,273,2115.0,-364.40544810106513,32000.0,79.2,98.0,-1.4,-0.3,1.09,GOOD
1790985819474,274,2156.0,-403.3297682146889,32000.0,79.2,98.0,-1.4,-0.3,1.09,GOOD
1790985819474,275,2161.0,-363.0575642821111,32000.0,79.2,98.0,-1.4,-0.3,1.09,GOOD
1790985819571,276,2149.0,-291.00467627246235,32000.0,79.2,98.0,-1.3,-0.4,1.08,GOOD
1790985819571,277,2094.0,-244.33657984675295,32000.0,79.2,98.0,-1.3,-0.4,1.08,GOOD
1790985819571,278,2101.0,-249.373787943637,32000.0,79.2,98.0,-1.3,-0.4,1.08,GOOD
1790985819571,279,2128.0,-282.71008857234324,32000.0,79.2,98.0,-1.3,-0.4,1.08,GOOD
1790985819571,280,2115.0,-303.06023782812895,32000.0,79.2,98.0,-1.3,-0.4,1.08,GOOD
1790985819571,281,2078.0,-299.9160368331391,32000.0,79.2,98.0,-1.3,-0.4,1.08,GOOD
1790985819571,282,2041.0,-297.046727317098,32000.0,79.2,98.0,-1.3,-0.4,1.08,GOOD
1790985819571,283,2051.0,-312.78662333109054,32000.0,79.2,98.0,-1.3,-0.4,1.08,GOOD
1790985819571,284,2077.0,-335.12356960331,32000.0,79.2,98.0,-1.3,-0.4,1.08,GOOD
1790985819571,285,2033.0,-342.9147116145786,32000.0,79.2,98.0,-1.3,-0.4,1.08,GOOD
1790985819571,286,1970.0,-339.81923716222974,32000.0,79.2,98.0,-1.3,-0.4,1.08,GOOD
1790985819571,287,2000.0,-346.7992608367572,32000.0,79.2,98.0,-1.3,-0.4,1.08,GOOD
1790985819571,288,2004.0,-367.0262288179442,32000.0,79.2,98.0,-1.3,-0.4,1.08,GOOD
1790985819571,289,2139.0,-377.6731133155315,32000.0,79.2,98.0,-1.3,-0.4,1.08,GOOD
1790985819571,290,2140.0,-354.5565632851869,32000.0,79.2,98.0,-1.3,-0.4,1.08,GOOD
1790985819571,291,2143.0,-301.2827134906337,32000.0,79.2,98.0,-1.3,-0.4,1.08,GOOD
1790985819571,292,2112.0,-247.93107934881215,32000.0,79.2,98.0,-1.3,-0.4,1.08,GOOD
1790985819571,293,2084.0,-220.56937237597705,32000.0,79.2,98.0,-1.3,-0.4,1.08,GOOD
1790985819571,294,2094.0,-222.6492941932081,32000.0,79.2,98.0,-1.3,-0.4,1.08,GOOD
1790985819571,295,2122.0,-239.14492230885173,32000.0,79.2,98.0,-1.3,-0.4,1.08,GOOD
1790985819571,296,2110.0,-252.20575915295197,32000.0,79.2,98.0,-1.3,-0.4,1.08,GOOD
1790985819571,297,2233.0,-249.82473392055803,32000.0,79.2,98.0,-1.3,-0.4,1.08,GOOD
1790985819571,298,2230.0,-223.30272217737718,32000.0,79.2,98.0,-1.3,-0.4,1.08,GOOD
1790985819571,299,2237.0,-176.52427022265658,32000.0,79.2,98.0,-1.3,-0.4,1.08,GOOD
1790985819571,300,2266.0,-128.83899004372907,32000.0,79.2,98.0,-1.3,-0.4,1.08,GOOD
1790985819777,301,2210.0,-97.81803424038847,32000.0,79.2,98.0,-1.4,-0.2,1.08,GOOD
1790985819777,302,2262.0,-88.79338568015797,32000.0,79.2,98.0,-1.4,-0.2,1.08,GOOD
1790985819777,303,2265.0,-92.58800642367692,32000.0,79.2,98.0,-1.4,-0.2,1.08,GOOD
1790985819777,304,2283.0,-94.01469551874189,32000.0,79.2,98.0,-1.4,-0.2,1.08,GOOD
1790985819777,305,2368.0,-83.68431720673738,32000.0,79.2,98.0,-1.4,-0.2,1.08,GOOD
1790985819777,306,2347.0,-58.73858462707928,32000.0,79.2,98.0,-1.4,-0.2,1.08,GOOD
1790985819777,307,2334.0,-26.941283415521973,32000.0,79.2,98.0,-1.4,-0.2,1.08,GOOD
1790985819777,308,2328.0,-3.6884008606608036,32000.0,79.2,98.0,-1.4,-0.2,1.08,GOOD
1790985819777,309,2234.0,-0.6356055850193014,32000.0,79.2,98.0,-1.4,-0.2,1.08,GOOD
1790985819777,310,2244.0,-22.689752342987433,32000.0,79.2,98.0,-1.4,-0.2,1.08,GOOD
1790985819777,311,2231.0,-62.212673274600604,32000.0,79.2,98.0,-1.4,-0.2,1.08,GOOD
1790985819777,312,2204.0,-101.42990152486416,32000.0,79.2,98.0,-1.4,-0.2,1.08,GOOD
1790985819777,313,2352.0,-122.63905139765765,32000.0,79.2,98.0,-1.4,-0.2,1.08,GOOD
1790985819777,314,2375.0,-110.22017860508011,32000.0,79.2,98.0,-1.4,-0.2,1.08,GOOD
1790985819777,315,2393.0,-64.55700154278112,32000.0,79.2,98.0,-1.4,-0.2,1.08,GOOD
1790985819777,316,2387.0,-8.832901336003943,32000.0,79.2,98.0,-1.4,-0.2,1.08,GOOD
1790985819777,317,2348.0,31.507631385337383,32000.0,79.2,98.0,-1.4,-0.2,1.08,GOOD
1790985819777,318,2352.0,44.43009959064308,32000.0,79.2,98.0,-1.4,-0.2,1.08,GOOD
1790985819777,319,2370.0,33.83646022538537,32000.0,79.2,98.0,-1.4,-0.2,1.08,GOOD
1790985819777,320,2372.0,14.492104614984283,32000.0,79.2,98.0,-1.4,-0.2,1.08,GOOD
1790985819777,321,2386.0,0.99187497384741,32000.0,79.2,98.0,-1.4,-0.2,1.08,GOOD
1790985819777,322,2362.0,0.01592048446752159,32000.0,79.2,98.0,-1.4,-0.2,1.08,GOOD
1790985819777,323,2357.0,7.273074427332142,32000.0,79.2,98.0,-1.4,-0.2,1.08,GOOD
1790985819777,324,2357.0,11.99333550471712,32000.0,79.2,98.0,-1.4,-0.2,1.08,GOOD
1790985819777,325,2240.0,2.899790677790196,32000.0,79.2,98.0,-1.4,-0.2,1.08,GOOD
1790985819778,326,2205.0,-28.912668139699228,32000.0,79.2,98.0,-1.4,-0.2,1.08,GOOD
1790985819778,327,2176.0,-79.62542143373939,32000.0,79.2,98.0,-1.4,-0.2,1.08,GOOD
1790985819778,328,2151.0,-132.52110380066654,32000.0,79.2,98.0,-1.4,-0.2,1.08,GOOD
1790985819778,329,2097.0,-177.23485566857974,32000.0,79.2,98.0,-1.4,-0.2,1.08,GOOD
1790985819778,330,2126.0,-213.9620278846923,32000.0,79.2,98.0,-1.4,-0.2,1.08,GOOD
1790985819778,331,2122.0,-239.15793649056172,32000.0,79.2,98.0,-1.4,-0.2,1.08,GOOD
1790985819778,332,2087.0,-247.6019614685089,32000.0,79.2,98.0,-1.4,-0.2,1.08,GOOD
1790985819778,333,2055.0,-246.48595691952607,32000.0,79.2,98.0,-1.4,-0.2,1.08,GOOD
1790985819778,334,2070.0,-249.5632702002762,32000.0,79.2,98.0,-1.4,-0.2,1.08,GOOD
1790985819778,335,2092.0,-259.5248971030295,32000.0,79.2,98.0,-1.4,-0.2,1.08,GOOD
1790985819778,336,2079.0,-267.460060791258,32000.0,79.2,98.0,-1.4,-0.2,1.08,GOOD
1790985819778,337,1933.0,-272.1958227547755,32000.0,79.2,98.0,-1.4,-0.2,1.08,GOOD
1790985819778,338,1929.0,-287.8969899707814,32000.0,79.2,98.0,-1.4,-0.2,1.08,GOOD
1790985819778,339,1951.0,-320.6579225327721,32000.0,79.2,98.0,-1.4,-0.2,1.08,GOOD
1790985819778,340,1967.0,-355.65662377072897,32000.0,79.2,98.0,-1.4,-0.2,1.08,GOOD
1790985819778,341,2036.0,-373.00995149953656,32000.0,79.2,98.0,-1.4,-0.2,1.08,GOOD
1790985819778,342,2015.0,-361.4381848328741,32000.0,79.2,98.0,-1.4,-0.2,1.08,GOOD
1790985819778,343,1883.0,-331.4256132916005,32000.0,79.2,98.0,-1.4,-0.2,1.08,GOOD
1790985819778,344,1900.0,-314.01010729492424,32000.0,79.2,98.0,-1.4,-0.2,1.08,GOOD
1790985819778,345,2055.0,-321.024682310696,32000.0,79.2,98.0,-1.4,-0.2,1.08,GOOD
1790985819778,346,2045.0,-327.76167894014293,32000.0,79.2,98.0,-1.4,-0.2,1.08,GOOD
1790985819778,347,2031.0,-312.70383362832297,32000.0,79.2,98.0,-1.4,-0.2,1.08,GOOD
1790985819778,348,2035.0,-280.19383596046384,32000.0,79.2,98.0,-1.4,-0.2,1.08,GOOD
1790985819778,349,2046.0,-243.5557505765397,32000.0,79.2,98.0,-1.4,-0.2,1.08,GOOD
1790985819778,350,2044.0,-216.0786843425049,32000.0,79.2,98.0,-1.4,-0.2,1.08,GOOD
1790985820001,351,2020.0,-209.30126072070533,32000.0,79.2,98.0,-1.4,-0.3,1.08,GOOD
1790985820001,352,2032.0,-221.78980258966533,32000.0,79.2,98.0,-1.4,-0.3,1.08,GOOD
1790985820001,353,2046.0,-234.8016879228664,32000.0,79.2,98.0,-1.4,-0.3,1.08,GOOD
1790985820001,354,2046.0,-230.89108103931918,32000.0,79.2,98.0,-1.4,-0.3,1.08,GOOD
1790985820001,355,2044.0,-214.09886074957103,32000.0,79.2,98.0,-1.4,-0.3,1.08,GOOD
1790985820001,356,2047.0,-201.62177490108343,32000.0,79.2,98.0,-1.4,-0.3,1.08,GOOD
1790985820001,357,2033.0,-200.7934753575299,32000.0,79.2,98.0,-1.4,-0.3,1.08,GOOD
1790985820001,358,2046.0,-203.32445637700843,32000.0,79.2,98.0,-1.4,-0.3,1.08,GOOD
1790985820001,359,2041.0,-199.1745749408206,32000.0,79.2,98.0,-1.4,-0.3,1.08,GOOD
1790985820001,360,2039.0,-190.2012865273191,32000.0,79.2,98.0,-1.4,-0.3,1.08,GOOD
1790985820001,361,1966.0,-189.0123179440645,32000.0,79.2,98.0,-1.4,-0.3,1.08,GOOD
1790985820001,362,1956.0,-204.7347650447469,32000.0,79.2,98.0,-1.4,-0.3,1.08,GOOD
1790985820001,363,1958.0,-230.17661511827822,32000.0,79.2,98.0,-1.4,-0.3,1.08,GOOD
1790985820001,364,1963.0,-249.1272533608972,32000.0,79.2,98.0,-1.4,-0.3,1.08,GOOD
1790985820001,365,2053.0,-251.96165776992913,32000.0,79.2,98.0,-1.4,-0.3,1.08,GOOD
1790985820001,366,2035.0,-237.21471682671043,32000.0,79.2,98.0,-1.4,-0.3,1.08,GOOD
1790985820001,367,2029.0,-210.63124521016638,32000.0,79.2,98.0,-1.4,-0.3,1.08,GOOD
1790985820001,368,2027.0,-182.61675997986202,32000.0,79.2,98.0,-1.4,-0.3,1.08,GOOD
1790985820001,369,1949.0,-164.21278636485403,32000.0,79.2,98.0,-1.4,-0.3,1.08,GOOD
1790985820001,370,2003.0,-165.45275791605195,32000.0,79.2,98.0,-1.4,-0.3,1.08,GOOD
1790985820001,371,1994.0,-183.65575514743335,32000.0,79.2,98.0,-1.4,-0.3,1.08,GOOD
1790985820001,372,1995.0,-202.12903229725575,32000.0,79.2,98.0,-1.4,-0.3,1.08,GOOD
1790985820001,373,2082.0,-203.55374250620605,32000.0,79.2,98.0,-1.4,-0.3,1.08,GOOD
1790985820001,374,2082.0,-178.7377434795789,32000.0,79.2,98.0,-1.4,-0.3,1.08,GOOD
1790985820001,375,2070.0,-137.61376582253456,32000.0,79.2,98.0,-1.4,-0.3,1.08,GOOD
1790985820002,376,2069.0,-104.29452689605236,32000.0,79.2,98.0,-1.4,-0.3,1.08,GOOD
1790985820002,377,2105.0,-89.81320848697062,32000.0,79.2,98.0,-1.4,-0.3,1.08,GOOD
1790985820002,378,2112.0,-83.81296885426724,32000.0,79.2,98.0,-1.4,-0.3,1.08,GOOD
1790985820002,379,2123.0,-74.06883490946007,32000.0,79.2,98.0,-1.4,-0.3,1.08,GOOD
1790985820002,380,2036.0,-63.75946736996906,32000.0,79.2,98.0,-1.4,-0.3,1.08,GOOD
1790985820002,381,1954.0,-69.81839423551165,32000.0,79.2,98.0,-1.4,-0.3,1.08,GOOD
1790985820002,382,1935.0,-103.38503868214369,32000.0,79.2,98.0,-1.4,-0.3,1.08,GOOD
1790985820002,383,1936.0,-153.65987946036716,32000.0,79.2,98.0,-1.4,-0.3,1.08,GOOD
1790985820002,384,2065.0,-193.43611611846552,32000.0,79.2,98.0,-1.4,-0.3,1.08,GOOD
1790985820002,385,2066.0,-197.74357984049323,32000.0,79.2,98.0,-1.4,-0.3,1.08,GOOD
1790985820002,386,2077.0,-164.19609470123677,32000.0,79.2,98.0,-1.4,-0.3,1.08,GOOD
1790985820002,387,2059.0,-114.12318062564395,32000.0,79.2,98.0,-1.4,-0.3,1.08,GOOD
1790985820002,388,2086.0,-71.58145796922986,32000.0,79.2,98.0,-1.4,-0.3,1.08,GOOD
1790985820002,389,2093.0,-48.442362843387514,32000.0,79.2,98.0,-1.4,-0.3,1.08,GOOD
1790985820002,390,2076.0,-44.59859997412333,32000.0,79.2,98.0,-1.4,-0.3,1.08,GOOD
1790985820002,391,2089.0,-51.7643509551653,32000.0,79.2,98.0,-1.4,-0.3,1.08,GOOD
1790985820002,392,2119.0,-55.71018639136422,32000.0,79.2,98.0,-1.4,-0.3,1.08,GOOD
1790985820002,393,2117.0,-46.24652884242995,32000.0,79.2,98.0,-1.4,-0.3,1.08,GOOD
1790985820002,394,2116.0,-28.79472422523117,32000.0,79.2,98.0,-1.4,-0.3,1.08,GOOD
1790985820002,395,2110.0,-16.796214317791026,32000.0,79.2,98.0,-1.4,-0.3,1.08,GOOD
1790985820002,396,2091.0,-15.498262117366217,32000.0,79.2,98.0,-1.4,-0.3,1.08,GOOD
1790985820002,397,2086.0,-20.360611899810067,32000.0,79.2,98.0,-1.4,-0.3,1.08,GOOD
1790985820002,398,2082.0,-26.2784900929962,32000.0,79.2,98.0,-1.4,-0.3,1.08,GOOD
1790985820002,399,2081.0,-32.84859037269835,32000.0,79.2,98.0,-1.4,-0.3,1.08,GOOD
1790985820002,400,2094.0,-40.43612600354372,32000.0,79.2,98.0,-1.4,-0.3,1.08,GOOD
1790985820202,401,2023.0,-47.538380896782456,32000.0,79.3,98.0,-1.4,-0.3,1.08,GOOD
1790985820202,402,2092.0,-52.71870027144939,32000.0,79.3,98.0,-1.4,-0.3,1.08,GOOD
1790985820202,403,2076.0,-52.83585836235265,32000.0,79.3,98.0,-1.4,-0.3,1.08,GOOD
1790985820202,404,2105.0,-46.73980188886966,32000.0,79.3,98.0,-1.4,-0.3,1.08,GOOD
1790985820202,405,2116.0,-37.53084411362971,32000.0,79.3,98.0,-1.4,-0.3,1.08,GOOD
1790985820202,406,2112.0,-25.799468933224933,32000.0,79.3,98.0,-1.4,-0.3,1.08,GOOD
1790985820202,407,2106.0,-11.467974112156517,32000.0,79.3,98.0,-1.4,-0.3,1.08,GOOD
1790985820202,408,2094.0,0.3293731356993965,32000.0,79.3,98.0,-1.4,-0.3,1.08,GOOD
1790985820202,409,2103.0,2.7843317209463687,32000.0,79.3,98.0,-1.4,-0.3,1.08,GOOD
1790985820202,410,2090.0,-4.612219257239281,32000.0,79.3,98.0,-1.4,-0.3,1.08,GOOD
1790985820202,411,2104.0,-14.297495451461185,32000.0,79.3,98.0,-1.4,-0.3,1.08,GOOD
1790985820202,412,1965.0,-22.71141693486831,32000.0,79.3,98.0,-1.4,-0.3,1.08,GOOD
1790985820202,413,1975.0,-39.90974459638737,32000.0,79.3,98.0,-1.4,-0.3,1.08,GOOD
1790985820202,414,1964.0,-72.74600813167459,32000.0,79.3,98.0,-1.4,-0.3,1.08,GOOD
1790985820202,415,1950.0,-111.37456619963942,32000.0,79.3,98.0,-1.4,-0.3,1.08,GOOD
1790985820202,416,2132.0,-134.53550601381525,32000.0,79.3,98.0,-1.4,-0.3,1.08,GOOD
1790985820202,417,2145.0,-117.48940804079473,32000.0,79.3,98.0,-1.4,-0.3,1.08,GOOD
1790985820202,418,2150.0,-58.186499956999114,32000.0,79.3,98.0,-1.4,-0.3,1.08,GOOD
1790985820202,419,2147.0,12.036985110975852,32000.0,79.3,98.0,-1.4,-0.3,1.08,GOOD
1790985820202,420,2082.0,57.99044217769439,32000.0,79.3,98.0,-1.4,-0.3,1.08,GOOD
1790985820202,421,2070.0,63.601155877331344,32000.0,79.3,98.0,-1.4,-0.3,1.08,GOOD
1790985820202,422,2071.0,36.37126070645497,32000.0,79.3,98.0,-1.4,-0.3,1.08,GOOD
1790985820202,423,2068.0,-0.4281155876834051,32000.0,79.3,98.0,-1.4,-0.3,1.08,GOOD
1790985820202,424,2139.0,-23.68390215470054,32000.0,79.3,98.0,-1.4,-0.3,1.08,GOOD
1790985820202,425,2161.0,-19.52121594192161,32000.0,79.3,98.0,-1.4,-0.3,1.08,GOOD
1790985820202,426,2167.0,10.137235118115424,32000.0,79.3,98.0,-1.4,-0.3,1.08,GOOD
1790985820202,427,2178.0,48.34281296981179,32000.0,79.3,98.0,-1.4,-0.3,1.08,GOOD
1790985820202,428,2117.0,75.74336550676348,32000.0,79.3,98.0,-1.4,-0.3,1.08,GOOD
1790985820202,429,2118.0,80.54968106294638,32000.0,79.3,98.0,-1.4,-0.3,1.08,GOOD
1790985820202,430,2097.0,64.14918792551512,32000.0,79.3,98.0,-1.4,-0.3,1.08,GOOD
1790985820202,431,2095.0,38.44748315178892,32000.0,79.3,98.0,-1.4,-0.3,1.08,GOOD
1790985820202,432,2131.0,16.78917928523574,32000.0,79.3,98.0,-1.4,-0.3,1.08,GOOD
1790985820202,433,2136.0,9.289695480928062,32000.0,79.3,98.0,-1.4,-0.3,1.08,GOOD
1790985820202,434,2125.0,17.302245735724732,32000.0,79.3,98.0,-1.4,-0.3,1.08,GOOD
1790985820202,435,2118.0,31.605062312785314,32000.0,79.3,98.0,-1.4,-0.3,1.08,GOOD
1790985820202,436,2067.0,39.39176612784724,32000.0,79.3,98.0,-1.4,-0.3,1.08,GOOD
1790985820202,437,2057.0,31.455902029568485,32000.0,79.3,98.0,-1.4,-0.3,1.08,GOOD
1790985820202,438,2037.0,8.243701622077364,32000.0,79.3,98.0,-1.4,-0.3,1.08,GOOD
1790985820202,439,2027.0,-20.43970400523467,32000.0,79.3,98.0,-1.4,-0.3,1.08,GOOD
1790985820202,440,2224.0,-36.02646165358051,32000.0,79.3,98.0,-1.4,-0.3,1.08,GOOD
1790985820202,441,2220.0,-15.795331440483068,32000.0,79.3,98.0,-1.4,-0.3,1.08,GOOD
1790985820202,442,2225.0,39.90472168078465,32000.0,79.3,98.0,-1.4,-0.3,1.08,GOOD
1790985820202,443,2152.0,98.86692902562172,32000.0,79.3,98.0,-1.4,-0.3,1.08,GOOD
1790985820202,444,2055.0,125.23086451105414,32000.0,79.3,98.0,-1.4,-0.3,1.08,GOOD
1790985820202,445,2063.0,104.16621251750925,32000.0,79.3,98.0,-1.4,-0.3,1.08,GOOD
1790985820202,446,2063.0,50.23183708029062,32000.0,79.3,98.0,-1.4,-0.3,1.08,GOOD
1790985820202,447,2099.0,-4.3973612512459646,32000.0,79.3,98.0,-1.4,-0.3,1.08,GOOD
1790985820202,448,2115.0,-32.256105266129545,32000.0,79.3,98.0,-1.4,-0.3,1.08,GOOD
1790985820202,449,2018.0,-28.362791172922055,32000.0,79.3,98.0,-1.4,-0.3,1.08,GOOD
1790985820202,450,2129.0,-9.781801528528492,32000.0,79.3,98.0,-1.4,-0.3,1.08,GOOD
1790985820396,451,2109.0,8.250315715018736,32000.0,79.3,98.0,-1.4,-0.4,1.13,GOOD
1790985820396,452,2655.0,41.67992064033877,32000.0,79.3,98.0,-1.4,-0.4,1.13,GOOD
1790985820396,453,2634.0,135.3784089319338,32000.0,79.3,98.0,-1.4,-0.4,1.13,GOOD
1790985820396,454,2652.0,295.83893089049116,32000.0,79.3,98.0,-1.4,-0.4,1.13,GOOD
1790985820396,455,2687.0,464.0771396705481,32000.0,79.3,98.0,-1.4,-0.4,1.13,GOOD
1790985820396,456,2359.0,568.7022401110291,32000.0,79.3,98.0,-1.4,-0.4,1.13,GOOD
1790985820396,457,2305.0,557.5213576657086,32000.0,79.3,98.0,-1.4,-0.4,1.13,GOOD
1790985820396,458,2267.0,432.36690081887906,32000.0,79.3,98.0,-1.4,-0.4,1.13,GOOD
1790985820396,459,2230.0,264.3272239476732,32000.0,79.3,98.0,-1.4,-0.4,1.13,GOOD
1790985820396,460,2204.0,132.17731807409015,32000.0,79.3,98.0,-1.4,-0.4,1.13,GOOD
1790985820396,461,2211.0,68.28407221229631,32000.0,79.3,98.0,-1.4,-0.4,1.13,GOOD
1790985820396,462,2207.0,58.80907119784375,32000.0,79.3,98.0,-1.4,-0.4,1.13,GOOD
1790985820396,463,2197.0,69.43136947694903,32000.0,79.3,98.0,-1.4,-0.4,1.13,GOOD
1790985820396,464,1899.0,62.77374245602325,32000.0,79.3,98.0,-1.4,-0.4,1.13,GOOD
1790985820396,465,1892.0,9.470817435532355,32000.0,79.3,98.0,-1.4,-0.4,1.13,GOOD
1790985820396,466,1854.0,-84.63590022416862,32000.0,79.3,98.0,-1.4,-0.4,1.13,GOOD
1790985820396,467,1815.0,-183.8517670815973,32000.0,79.3,98.0,-1.4,-0.4,1.13,GOOD
1790985820396,468,2021.0,-254.862269104043,32000.0,79.3,98.0,-1.4,-0.4,1.13,GOOD
1790985820396,469,2043.0,-268.82797272916866,32000.0,79.3,98.0,-1.4,-0.4,1.13,GOOD
1790985820396,470,2049.0,-216.5599468537894,32000.0,79.3,98.0,-1.4,-0.4,1.13,GOOD
1790985820396,471,2053.0,-128.85774836633283,32000.0,79.3,98.0,-1.4,-0.4,1.13,GOOD
1790985820396,472,2212.0,-46.49324983249822,32000.0,79.3,98.0,-1.4,-0.4,1.13,GOOD
1790985820396,473,2203.0,13.835448070356975,32000.0,79.3,98.0,-1.4,-0.4,1.13,GOOD
1790985820396,474,2227.0,53.60192834814805,32000.0,79.3,98.0,-1.4,-0.4,1.13,GOOD
1790985820396,475,2246.0,81.54062816854736,32000.0,79.3,98.0,-1.4,-0.4,1.13,GOOD
1790985820397,476,2056.0,101.95669065357662,32000.0,79.3,98.0,-1.4,-0.4,1.13,GOOD
1790985820397,477,2043.0,97.06749819518194,32000.0,79.3,98.0,-1.4,-0.4,1.13,GOOD
1790985820397,478,2018.0,49.74611303161704,32000.0,79.3,98.0,-1.4,-0.4,1.13,GOOD
1790985820397,479,2035.0,-23.49861673551599,32000.0,79.3,98.0,-1.4,-0.4,1.13,GOOD
1790985820397,480,2168.0,-79.52564191375694,32000.0,79.3,98.0,-1.4,-0.4,1.13,GOOD
1790985820397,481,2175.0,-79.19741226996003,32000.0,79.3,98.0,-1.4,-0.4,1.13,GOOD
1790985820397,482,2154.0,-25.018667343172368,32000.0,79.3,98.0,-1.4,-0.4,1.13,GOOD
1790985820397,483,2158.0,38.46516869066444,32000.0,79.3,98.0,-1.4,-0.4,1.13,GOOD
1790985820397,484,2141.0,71.5773851367259,32000.0,79.3,98.0,-1.4,-0.4,1.13,GOOD
1790985820397,485,2110.0,68.15859158614569,32000.0,79.3,98.0,-1.4,-0.4,1.13,GOOD
1790985820397,486,2075.0,43.50691881958916,32000.0,79.3,98.0,-1.4,-0.4,1.13,GOOD
1790985820397,487,2010.0,11.533432256752935,32000.0,79.3,98.0,-1.4,-0.4,1.13,GOOD
1790985820397,488,1850.0,-30.66767204578559,32000.0,79.3,98.0,-1.4,-0.4,1.13,GOOD
1790985820397,489,1869.0,-93.83854945659976,32000.0,79.3,98.0,-1.4,-0.4,1.13,GOOD
1790985820397,490,1898.0,-166.69061086268343,32000.0,79.3,98.0,-1.4,-0.4,1.13,GOOD
1790985820397,491,1888.0,-218.1834148567567,32000.0,79.3,98.0,-1.4,-0.4,1.13,GOOD
1790985820397,492,2307.0,-216.76378423464496,32000.0,79.3,98.0,-1.4,-0.4,1.13,GOOD
1790985820397,493,2287.0,-136.7229118975689,32000.0,79.3,98.0,-1.4,-0.4,1.13,GOOD
1790985820397,494,2302.0,4.612335963261469,32000.0,79.3,98.0,-1.4,-0.4,1.13,GOOD
1790985820397,495,2317.0,143.35472231005915,32000.0,79.3,98.0,-1.4,-0.4,1.13,GOOD
1790985820397,496,2426.0,236.2646698097575,32000.0,79.3,98.0,-1.4,-0.4,1.13,GOOD
1790985820397,497,2385.0,284.2231999623302,32000.0,79.3,98.0,-1.4,-0.4,1.13,GOOD
1790985820397,498,2384.0,298.5881550514201,32000.0,79.3,98.0,-1.4,-0.4,1.13,GOOD
1790985820397,499,2406.0,290.5028398964818,32000.0,79.3,98.0,-1.4,-0.4,1.13,GOOD
1790985820397,500,2339.0,276.6217816149575,32000.0,79.3,98.0,-1.4,-0.4,1.13,GOOD
1790985820621,501,2345.0,265.30760057346833,32000.0,79.3,98.0,-1.5,-0.3,1.08,GOOD
1790985820621,502,2317.0,251.04164493324737,32000.0,79.3,98.0,-1.5,-0.3,1.08,GOOD
1790985820621,503,2319.0,228.2275612997899,32000.0,79.3,98.0,-1.5,-0.3,1.08,GOOD
1790985820621,504,2395.0,204.29050543025076,32000.0,79.3,98.0,-1.5,-0.3,1.08,GOOD
1790985820621,505,2419.0,198.93886042578862,32000.0,79.3,98.0,-1.5,-0.3,1.08,GOOD
1790985820621,506,2406.0,220.66131582590927,32000.0,79.3,98.0,-1.5,-0.3,1.08,GOOD
1790985820621,507,2391.0,251.8962205599801,32000.0,79.3,98.0,-1.5,-0.3,1.08,GOOD
1790985820621,508,2338.0,266.59107413613094,32000.0,79.3,98.0,-1.5,-0.3,1.08,GOOD
1790985820621,509,2384.0,255.2835014927359,32000.0,79.3,98.0,-1.5,-0.3,1.08,GOOD
1790985820621,510,2407.0,233.0011360381468,32000.0,79.3,98.0,-1.5,-0.3,1.08,GOOD
1790985820621,511,2094.0,208.55515061186324,32000.0,79.3,98.0,-1.5,-0.3,1.08,GOOD
1790985820621,512,2061.0,157.88861625784975,32000.0,79.3,98.0,-1.5,-0.3,1.08,GOOD
1790985820621,513,2034.0,66.9627680116451,32000.0,79.3,98.0,-1.5,-0.3,1.08,GOOD
1790985820621,514,2039.0,-35.2882436049019,32000.0,79.3,98.0,-1.5,-0.3,1.08,GOOD
1790985820621,515,2149.0,-108.10506286676257,32000.0,79.3,98.0,-1.5,-0.3,1.08,GOOD
1790985820621,516,2154.0,-126.59562012570856,32000.0,79.3,98.0,-1.5,-0.3,1.08,GOOD
1790985820621,517,2137.0,-94.02455883978645,32000.0,79.3,98.0,-1.5,-0.3,1.08,GOOD
1790985820621,518,2137.0,-40.81972759392332,32000.0,79.3,98.0,-1.5,-0.3,1.08,GOOD
1790985820621,519,1959.0,-7.336829666754927,32000.0,79.3,98.0,-1.5,-0.3,1.08,GOOD
1790985820621,520,1971.0,-25.041043013768377,32000.0,79.3,98.0,-1.5,-0.3,1.08,GOOD
1790985820621,521,1961.0,-89.25771960480145,32000.0,79.3,98.0,-1.5,-0.3,1.08,GOOD
1790985820621,522,1956.0,-159.55053329181933,32000.0,79.3,98.0,-1.5,-0.3,1.08,GOOD
1790985820621,523,2036.0,-197.7496749822693,32000.0,79.3,98.0,-1.5,-0.3,1.08,GOOD
1790985820621,524,2060.0,-190.4798789430207,32000.0,79.3,98.0,-1.5,-0.3,1.08,GOOD
1790985820621,525,2058.0,-150.95804050690657,32000.0,79.3,98.0,-1.5,-0.3,1.08,GOOD
1790985820622,526,2072.0,-106.64894855644447,32000.0,79.3,98.0,-1.5,-0.3,1.08,GOOD
1790985820622,527,1996.0,-78.3648223672686,32000.0,79.3,98.0,-1.5,-0.3,1.08,GOOD
1790985820622,528,1987.0,-74.58077457806664,32000.0,79.3,98.0,-1.5,-0.3,1.08,GOOD
1790985820622,529,1992.0,-92.35649189704073,32000.0,79.3,98.0,-1.5,-0.3,1.08,GOOD
1790985820622,530,1993.0,-118.84613890388819,32000.0,79.3,98.0,-1.5,-0.3,1.08,GOOD
1790985820622,531,2076.0,-137.26611608030615,32000.0,79.3,98.0,-1.5,-0.3,1.08,GOOD
1790985820622,532,2045.0,-133.44345514218736,32000.0,79.3,98.0,-1.5,-0.3,1.08,GOOD
1790985820622,533,2039.0,-108.58784941840041,32000.0,79.3,98.0,-1.5,-0.3,1.08,GOOD
1790985820622,534,2041.0,-80.3750408070764,32000.0,79.3,98.0,-1.5,-0.3,1.08,GOOD
1790985820622,535,1957.0,-68.17513141669255,32000.0,79.3,98.0,-1.5,-0.3,1.08,GOOD
1790985820622,536,1952.0,-83.06714445986975,32000.0,79.3,98.0,-1.5,-0.3,1.08,GOOD
1790985820622,537,1910.0,-119.73470211414806,32000.0,79.3,98.0,-1.5,-0.3,1.08,GOOD
1790985820622,538,1924.0,-159.05071132149936,32000.0,79.3,98.0,-1.5,-0.3,1.08,GOOD
1790985820622,539,2021.0,-180.72203469517976,32000.0,79.3,98.0,-1.5,-0.3,1.08,GOOD
1790985820622,540,2037.0,-172.1694520957717,32000.0,79.3,98.0,-1.5,-0.3,1.08,GOOD
1790985820622,541,2025.0,-138.75546232086387,32000.0,79.3,98.0,-1.5,-0.3,1.08,GOOD
1790985820622,542,2010.0,-100.85139619663977,32000.0,79.3,98.0,-1.5,-0.3,1.08,GOOD
1790985820622,543,2010.0,-74.75769545230904,32000.0,79.3,98.0,-1.5,-0.3,1.08,GOOD
1790985820622,544,1911.0,-68.78309914356929,32000.0,79.3,98.0,-1.5,-0.3,1.08,GOOD
1790985820622,545,2014.0,-85.43492154753469,32000.0,79.3,98.0,-1.5,-0.3,1.08,GOOD
1790985820622,546,1926.0,-113.33367970140796,32000.0,79.3,98.0,-1.5,-0.3,1.08,GOOD
1790985820622,547,2058.0,-131.94825092487724,32000.0,79.3,98.0,-1.5,-0.3,1.08,GOOD
1790985820622,548,1977.0,-127.03127774555385,32000.0,79.3,98.0,-1.5,-0.3,1.08,GOOD
1790985820622,549,1946.0,-106.12375228693486,32000.0,79.3,98.0,-1.5,-0.3,1.08,GOOD
1790985820622,550,1958.0,-93.52162031383038,32000.0,79.3,98.0,-1.5,-0.3,1.08,GOOD
1790985820702,551,2048.0,-96.21318809792882,32000.0,79.3,98.0,-1.4,-0.3,1.08,GOOD
1790985820702,552,2040.0,-96.4332212471066,32000.0,79.3,98.0,-1.4,-0.3,1.08,GOOD
1790985820702,553,2026.0,-81.76341033882488,32000.0,79.3,98.0,-1.4,-0.3,1.08,GOOD
1790985820702,554,2031.0,-58.84324940688336,32000.0,79.3,98.0,-1.4,-0.3,1.08,GOOD
1790985820702,555,2067.0,-38.280602465137285,32000.0,79.3,98.0,-1.4,-0.3,1.08,GOOD
1790985820702,556,2053.0,-24.408973074431156,32000.0,79.3,98.0,-1.4,-0.3,1.08,GOOD
1790985820702,557,2043.0,-19.066058603934653,32000.0,79.3,98.0,-1.4,-0.3,1.08,GOOD
1790985820702,558,2055.0,-20.665939225124628,32000.0,79.3,98.0,-1.4,-0.3,1.08,GOOD
1790985820702,559,2052.0,-21.952307968066094,32000.0,79.3,98.0,-1.4,-0.3,1.08,GOOD
1790985820702,560,2059.0,-18.3000593649959,32000.0,79.3,98.0,-1.4,-0.3,1.08,GOOD
1790985820702,561,2053.0,-13.39953534614233,32000.0,79.3,98.0,-1.4,-0.3,1.08,GOOD
1790985820702,562,2022.0,-13.780577378121274,32000.0,79.3,98.0,-1.4,-0.3,1.08,GOOD
1790985820702,563,2028.0,-21.146901813478646,32000.0,79.3,98.0,-1.4,-0.3,1.08,GOOD
1790985820702,564,2045.0,-29.227249286506908,32000.0,79.3,98.0,-1.4,-0.3,1.08,GOOD
1790985820702,565,2038.0,-31.053029117413455,32000.0,79.3,98.0,-1.4,-0.3,1.08,GOOD
1790985820702,566,2060.0,-27.450983919595696,32000.0,79.3,98.0,-1.4,-0.3,1.08,GOOD
1790985820702,567,2057.0,-22.25800905368835,32000.0,79.3,98.0,-1.4,-0.3,1.08,GOOD
1790985820702,568,2057.0,-15.930119176891411,32000.0,79.3,98.0,-1.4,-0.3,1.08,GOOD
1790985820702,569,2049.0,-8.31517616347456,32000.0,79.3,98.0,-1.4,-0.3,1.08,GOOD
1790985820702,570,2087.0,-0.7204843900100117,32000.0,79.3,98.0,-1.4,-0.3,1.08,GOOD
1790985820702,571,1957.0,1.189154275539742,32000.0,79.3,98.0,-1.4,-0.3,1.08,GOOD
1790985820702,572,2042.0,-10.63342728992549,32000.0,79.3,98.0,-1.4,-0.3,1.08,GOOD
1790985820702,573,2068.0,-28.13464092398804,32000.0,79.3,98.0,-1.4,-0.3,1.08,GOOD
1790985820702,574,2047.0,-32.19340376581104,32000.0,79.3,98.0,-1.4,-0.3,1.08,GOOD
1790985820702,575,2057.0,-21.125510337143083,32000.0,79.3,98.0,-1.4,-0.3,1.08,GOOD
1790985820801,576,2056.0,-7.249835782009879,32000.0,79.3,98.0,-1.4,-0.3,1.09,GOOD
1790985820801,577,2057.0,1.9867492385694696,32000.0,79.3,98.0,-1.4,-0.3,1.09,GOOD
1790985820801,578,2136.0,9.079629014322418,32000.0,79.3,98.0,-1.4,-0.3,1.09,GOOD
1790985820801,579,2150.0,23.303808710644216,32000.0,79.3,98.0,-1.4,-0.3,1.09,GOOD
1790985820801,580,2161.0,48.439606376624496,32000.0,79.3,98.0,-1.4,-0.3,1.09,GOOD
1790985820801,581,2164.0,77.13216383514055,32000.0,79.3,98.0,-1.4,-0.3,1.09,GOOD
1790985820801,582,2070.0,96.55242420382812,32000.0,79.3,98.0,-1.4,-0.3,1.09,GOOD
1790985820801,583,2058.0,93.3217158945077,32000.0,79.3,98.0,-1.4,-0.3,1.09,GOOD
1790985820801,584,2063.0,65.58772845619276,32000.0,79.3,98.0,-1.4,-0.3,1.09,GOOD
1790985820801,585,2065.0,28.895450703036186,32000.0,79.3,98.0,-1.4,-0.3,1.09,GOOD
1790985820801,586,1945.0,-3.15533305316411,32000.0,79.3,98.0,-1.4,-0.3,1.09,GOOD
1790985820801,587,1941.0,-32.98800484213217,32000.0,79.3,98.0,-1.4,-0.3,1.09,GOOD
1790985820801,588,1938.0,-64.20732574144928,32000.0,79.3,98.0,-1.4,-0.3,1.09,GOOD
1790985820801,589,1937.0,-91.54975763810756,32000.0,79.3,98.0,-1.4,-0.3,1.09,GOOD
1790985820801,590,2100.0,-104.24695907306176,32000.0,79.3,98.0,-1.4,-0.3,1.09,GOOD
1790985820801,591,2101.0,-86.99703038854015,32000.0,79.3,98.0,-1.4,-0.3,1.09,GOOD
1790985820801,592,2101.0,-37.67090277742001,32000.0,79.3,98.0,-1.4,-0.3,1.09,GOOD
1790985820801,593,2089.0,21.121121194374414,32000.0,79.3,98.0,-1.4,-0.3,1.09,GOOD
1790985820801,594,2079.0,61.92820202158353,32000.0,79.3,98.0,-1.4,-0.3,1.09,GOOD
1790985820801,595,2090.0,72.03704698541722,32000.0,79.3,98.0,-1.4,-0.3,1.09,GOOD
1790985820801,596,2096.0,58.45858819625188,32000.0,79.3,98.0,-1.4,-0.3,1.09,GOOD
1790985820801,597,2107.0,41.1230124166966,32000.0,79.3,98.0,-1.4,-0.3,1.09,GOOD
1790985820801,598,2189.0,40.023195228084184,32000.0,79.3,98.0,-1.4,-0.3,1.09,GOOD
1790985820801,599,2192.0,63.677165160886744,32000.0,79.3,98.0,-1.4,-0.3,1.09,GOOD
1790985820801,600,2193.0,100.87156413190742,32000.0,79.3,98.0,-1.4,-0.3,1.09,GOOD
1790985821036,601,2182.0,130.33458087944769,32000.0,80.3,98.0,-1.3,-0.3,1.09,GOOD
1790985821036,602,2135.0,140.26612221517388,32000.0,80.3,98.0,-1.3,-0.3,1.09,GOOD
1790985821036,603,2133.0,131.65910519163572,32000.0,80.3,98.0,-1.3,-0.3,1.09,GOOD
1790985821036,604,2108.0,110.92305660197873,32000.0,80.3,98.0,-1.3,-0.3,1.09,GOOD
1790985821036,605,2111.0,84.6306100035333,32000.0,80.3,98.0,-1.3,-0.3,1.09,GOOD
1790985821036,606,2038.0,56.8024974126885,32000.0,80.3,98.0,-1.3,-0.3,1.09,GOOD
1790985821036,607,2045.0,29.52261228583985,32000.0,80.3,98.0,-1.3,-0.3,1.09,GOOD
1790985821036,608,2032.0,6.569708947529034,32000.0,80.3,98.0,-1.3,-0.3,1.09,GOOD
1790985821036,609,2024.0,-9.252914918510122,32000.0,80.3,98.0,-1.3,-0.3,1.09,GOOD
1790985821036,610,2046.0,-20.080688739970093,32000.0,80.3,98.0,-1.3,-0.3,1.09,GOOD
1790985821036,611,2038.0,-26.826518003642427,32000.0,80.3,98.0,-1.3,-0.3,1.09,GOOD
1790985821036,612,2020.0,-27.692128138655384,32000.0,80.3,98.0,-1.3,-0.3,1.09,GOOD
1790985821036,613,2015.0,-24.417939551296264,32000.0,80.3,98.0,-1.3,-0.3,1.09,GOOD
1790985821036,614,2101.0,-18.991948301010467,32000.0,80.3,98.0,-1.3,-0.3,1.09,GOOD
1790985821036,615,2091.0,-8.425899231030376,32000.0,80.3,98.0,-1.3,-0.3,1.09,GOOD
1790985821036,616,2015.0,4.761633463124816,32000.0,80.3,98.0,-1.3,-0.3,1.09,GOOD
1790985821036,617,2040.0,10.007681916768703,32000.0,80.3,98.0,-1.3,-0.3,1.09,GOOD
1790985821036,618,2045.0,6.0960379832072435,32000.0,80.3,98.0,-1.3,-0.3,1.09,GOOD
1790985821036,619,2036.0,0.14438266709892744,32000.0,80.3,98.0,-1.3,-0.3,1.09,GOOD
1790985821036,620,2038.0,-6.801380733740361,32000.0,80.3,98.0,-1.3,-0.3,1.09,GOOD
1790985821036,621,2054.0,-14.379289347777561,32000.0,80.3,98.0,-1.3,-0.3,1.09,GOOD
1790985821036,622,2522.0,2.81669505163401,32000.0,80.3,98.0,-1.3,-0.3,1.09,GOOD
1790985821036,623,2529.0,90.12890688227478,32000.0,80.3,98.0,-1.3,-0.3,1.09,GOOD
1790985821036,624,2534.0,243.32177101842387,32000.0,80.3,98.0,-1.3,-0.3,1.09,GOOD
1790985821036,625,2567.0,394.9614530859533,32000.0,80.3,98.0,-1.3,-0.3,1.09,GOOD
1790985821036,626,2711.0,498.2698768913034,32000.0,80.3,98.0,-1.3,-0.3,1.09,GOOD
1790985821036,627,2650.0,557.4011764902812,32000.0,80.3,98.0,-1.3,-0.3,1.09,GOOD
1790985821036,628,2626.0,581.2394626334996,32000.0,80.3,98.0,-1.3,-0.3,1.09,GOOD
1790985821036,629,2583.0,569.0464157071021,32000.0,80.3,98.0,-1.3,-0.3,1.09,GOOD
1790985821036,630,2030.0,510.9388794622087,32000.0,80.3,98.0,-1.3,-0.3,1.09,GOOD
1790985821036,631,2023.0,380.91167511244225,32000.0,80.3,98.0,-1.3,-0.3,1.09,GOOD
1790985821036,632,1977.0,186.94302135625517,32000.0,80.3,98.0,-1.3,-0.3,1.09,GOOD
1790985821036,633,1938.0,-9.707067410921411,32000.0,80.3,98.0,-1.3,-0.3,1.09,GOOD
1790985821036,634,2137.0,-146.70147694298836,32000.0,80.3,98.0,-1.3,-0.3,1.09,GOOD
1790985821036,635,2171.0,-182.59012477900882,32000.0,80.3,98.0,-1.3,-0.3,1.09,GOOD
1790985821036,636,2167.0,-116.83307376238815,32000.0,80.3,98.0,-1.3,-0.3,1.09,GOOD
1790985821036,637,2146.0,-7.734002576946342,32000.0,80.3,98.0,-1.3,-0.3,1.09,GOOD
1790985821036,638,2091.0,68.54578640010428,32000.0,80.3,98.0,-1.3,-0.3,1.09,GOOD
1790985821036,639,2108.0,75.1035974364015,32000.0,80.3,98.0,-1.3,-0.3,1.09,GOOD
1790985821036,640,2144.0,35.14908008947579,32000.0,80.3,98.0,-1.3,-0.3,1.09,GOOD
1790985821036,641,2155.0,1.0176350997475279,32000.0,80.3,98.0,-1.3,-0.3,1.09,GOOD
1790985821036,642,2160.0,0.7778709653568707,32000.0,80.3,98.0,-1.3,-0.3,1.09,GOOD
1790985821036,643,2138.0,21.044813728537385,32000.0,80.3,98.0,-1.3,-0.3,1.09,GOOD
1790985821036,644,2137.0,34.682265596136936,32000.0,80.3,98.0,-1.3,-0.3,1.09,GOOD
1790985821036,645,2158.0,33.32423632341809,32000.0,80.3,98.0,-1.3,-0.3,1.09,GOOD
1790985821036,646,2212.0,31.643540076973732,32000.0,80.3,98.0,-1.3,-0.3,1.09,GOOD
1790985821036,647,2205.0,44.07818997145385,32000.0,80.3,98.0,-1.3,-0.3,1.09,GOOD
1790985821036,648,2174.0,64.08469919566784,32000.0,80.3,98.0,-1.3,-0.3,1.09,GOOD
1790985821036,649,2185.0,74.27231586920698,32000.0,80.3,98.0,-1.3,-0.3,1.09,GOOD
1790985821036,650,2181.0,70.94914459896185,32000.0,80.3,98.0,-1.3,-0.3,1.09,GOOD
1790985821107,651,2183.0,64.19064546950179,32000.0,80.3,98.0,-1.4,-0.3,1.08,GOOD
1790985821107,652,2154.0,59.371890575066864,32000.0,80.3,98.0,-1.4,-0.3,1.08,GOOD
1790985821107,653,2138.0,51.43225742785741,32000.0,80.3,98.0,-1.4,-0.3,1.08,GOOD
1790985821107,654,2093.0,34.55904925879749,32000.0,80.3,98.0,-1.4,-0.3,1.08,GOOD
1790985821107,655,2118.0,11.38347099869028,32000.0,80.3,98.0,-1.4,-0.3,1.08,GOOD
1790985821107,656,2119.0,-7.8134642053998205,32000.0,80.3,98.0,-1.4,-0.3,1.08,GOOD
1790985821107,657,2225.0,-11.956913772492593,32000.0,80.3,98.0,-1.4,-0.3,1.08,GOOD
1790985821107,658,2217.0,4.9606014066696575,32000.0,80.3,98.0,-1.4,-0.3,1.08,GOOD
1790985821107,659,2226.0,37.68159792899987,32000.0,80.3,98.0,-1.4,-0.3,1.08,GOOD
1790985821107,660,2245.0,72.96225957782603,32000.0,80.3,98.0,-1.4,-0.3,1.08,GOOD
1790985821107,661,2183.0,98.68724958792104,32000.0,80.3,98.0,-1.4,-0.3,1.08,GOOD
1790985821107,662,2168.0,103.47105462305724,32000.0,80.3,98.0,-1.4,-0.3,1.08,GOOD
1790985821107,663,2156.0,83.08248920159406,32000.0,80.3,98.0,-1.4,-0.3,1.08,GOOD
1790985821107,664,2164.0,49.87711575728876,32000.0,80.3,98.0,-1.4,-0.3,1.08,GOOD
1790985821107,665,2309.0,29.127037690419748,32000.0,80.3,98.0,-1.4,-0.3,1.08,GOOD
1790985821107,666,2313.0,43.827855866113595,32000.0,80.3,98.0,-1.4,-0.3,1.08,GOOD
1790985821107,667,2301.0,90.13559984103459,32000.0,80.3,98.0,-1.4,-0.3,1.08,GOOD
1790985821107,668,2296.0,138.3814362574068,32000.0,80.3,98.0,-1.4,-0.3,1.08,GOOD
1790985821107,669,2336.0,167.19484689051012,32000.0,80.3,98.0,-1.4,-0.3,1.08,GOOD
1790985821107,670,2331.0,178.04767422913216,32000.0,80.3,98.0,-1.4,-0.3,1.08,GOOD
1790985821107,671,2305.0,177.9846059757893,32000.0,80.3,98.0,-1.4,-0.3,1.08,GOOD
1790985821107,672,2284.0,168.12575773240667,32000.0,80.3,98.0,-1.4,-0.3,1.08,GOOD
1790985821107,673,2141.0,145.23728499973396,32000.0,80.3,98.0,-1.4,-0.3,1.08,GOOD
1790985821107,674,2143.0,104.5720775256197,32000.0,80.3,98.0,-1.4,-0.3,1.08,GOOD
1790985821107,675,2157.0,51.6056537233176,32000.0,80.3,98.0,-1.4,-0.3,1.08,GOOD
1790985821186,676,2155.0,4.108352330529314,32000.0,80.3,98.0,-1.4,-0.3,1.09,GOOD
1790985821186,677,2470.0,-12.508345757004518,32000.0,80.3,98.0,-1.4,-0.3,1.09,GOOD
1790985821186,678,2474.0,31.97141720977377,32000.0,80.3,98.0,-1.4,-0.3,1.09,GOOD
1790985821186,679,2485.0,135.5256180301508,32000.0,80.3,98.0,-1.4,-0.3,1.09,GOOD
1790985821186,680,2497.0,249.22867444830408,32000.0,80.3,98.0,-1.4,-0.3,1.09,GOOD
1790985821186,681,2362.0,319.901032547854,32000.0,80.3,98.0,-1.4,-0.3,1.09,GOOD
1790985821186,682,2340.0,320.1266832697188,32000.0,80.3,98.0,-1.4,-0.3,1.09,GOOD
1790985821186,683,2311.0,259.61781013570686,32000.0,80.3,98.0,-1.4,-0.3,1.09,GOOD
1790985821186,684,2323.0,179.85392005204153,32000.0,80.3,98.0,-1.4,-0.3,1.09,GOOD
1790985821186,685,2198.0,116.47410420522982,32000.0,80.3,98.0,-1.4,-0.3,1.09,GOOD
1790985821186,686,2204.0,73.00433552016838,32000.0,80.3,98.0,-1.4,-0.3,1.09,GOOD
1790985821186,687,2162.0,37.321070356679,32000.0,80.3,98.0,-1.4,-0.3,1.09,GOOD
1790985821186,688,2130.0,2.5229290958361057,32000.0,80.3,98.0,-1.4,-0.3,1.09,GOOD
1790985821186,689,2111.0,-32.57518012891506,32000.0,80.3,98.0,-1.4,-0.3,1.09,GOOD
1790985821186,690,2111.0,-64.02116367153987,32000.0,80.3,98.0,-1.4,-0.3,1.09,GOOD
1790985821186,691,2120.0,-84.67218258201878,32000.0,80.3,98.0,-1.4,-0.3,1.09,GOOD
1790985821186,692,2095.0,-92.74270279307635,32000.0,80.3,98.0,-1.4,-0.3,1.09,GOOD
1790985821186,693,2055.0,-96.37799971915689,32000.0,80.3,98.0,-1.4,-0.3,1.09,GOOD
1790985821186,694,2052.0,-105.76530308070414,32000.0,80.3,98.0,-1.4,-0.3,1.09,GOOD
1790985821186,695,2078.0,-120.29492597406941,32000.0,80.3,98.0,-1.4,-0.3,1.09,GOOD
1790985821186,696,2080.0,-130.21166418383575,32000.0,80.3,98.0,-1.4,-0.3,1.09,GOOD
1790985821186,697,2103.0,-129.4306813811174,32000.0,80.3,98.0,-1.4,-0.3,1.09,GOOD
1790985821186,698,2091.0,-119.76968529103198,32000.0,80.3,98.0,-1.4,-0.3,1.09,GOOD
1790985821186,699,2096.0,-106.78874528516387,32000.0,80.3,98.0,-1.4,-0.3,1.09,GOOD
1790985821186,700,2110.0,-95.10529903446925,32000.0,80.3,98.0,-1.4,-0.3,1.09,GOOD
1790985821269,701,2143.0,-85.04605509435706,32000.0,80.3,98.0,-1.5,-0.3,1.08,GOOD
1790985821269,702,2124.0,-75.09035181757585,32000.0,80.3,98.0,-1.5,-0.3,1.08,GOOD
1790985821269,703,2106.0,-67.27030224911584,32000.0,80.3,98.0,-1.5,-0.3,1.08,GOOD
1790985821269,704,2117.0,-64.56873447146248,32000.0,80.3,98.0,-1.5,-0.3,1.08,GOOD
1790985821269,705,2086.0,-66.52702848821448,32000.0,80.3,98.0,-1.5,-0.3,1.08,GOOD
1790985821269,706,2087.0,-73.06923233208586,32000.0,80.3,98.0,-1.5,-0.3,1.08,GOOD
1790985821269,707,2066.0,-85.06583405202122,32000.0,80.3,98.0,-1.5,-0.3,1.08,GOOD
1790985821269,708,2021.0,-101.52863352399447,32000.0,80.3,98.0,-1.5,-0.3,1.08,GOOD
1790985821269,709,2077.0,-118.33233089971503,32000.0,80.3,98.0,-1.5,-0.3,1.08,GOOD
1790985821269,710,2079.0,-126.77976648236621,32000.0,80.3,98.0,-1.5,-0.3,1.08,GOOD
1790985821269,711,2080.0,-122.4932134085391,32000.0,80.3,98.0,-1.5,-0.3,1.08,GOOD
1790985821269,712,2009.0,-114.56233056759764,32000.0,80.3,98.0,-1.5,-0.3,1.08,GOOD
1790985821269,713,1976.0,-117.52909999078808,32000.0,80.3,98.0,-1.5,-0.3,1.08,GOOD
1790985821269,714,1988.0,-135.7052090855724,32000.0,80.3,98.0,-1.5,-0.3,1.08,GOOD
1790985821269,715,2012.0,-158.73887808136777,32000.0,80.3,98.0,-1.5,-0.3,1.08,GOOD
1790985821269,716,2016.0,-173.6777274939783,32000.0,80.3,98.0,-1.5,-0.3,1.08,GOOD
1790985821269,717,2103.0,-172.27662994383888,32000.0,80.3,98.0,-1.5,-0.3,1.08,GOOD
1790985821269,718,2086.0,-149.2322546382269,32000.0,80.3,98.0,-1.5,-0.3,1.08,GOOD
1790985821269,719,2099.0,-109.99712520725865,32000.0,80.3,98.0,-1.5,-0.3,1.08,GOOD
1790985821269,720,2098.0,-72.50902881465049,32000.0,80.3,98.0,-1.5,-0.3,1.08,GOOD
1790985821269,721,2114.0,-51.23545733960309,32000.0,80.3,98.0,-1.5,-0.3,1.08,GOOD
1790985821269,722,2116.0,-46.366325433906155,32000.0,80.3,98.0,-1.5,-0.3,1.08,GOOD
1790985821269,723,2107.0,-48.32423414468582,32000.0,80.3,98.0,-1.5,-0.3,1.08,GOOD
1790985821269,724,2102.0,-48.92945553356208,32000.0,80.3,98.0,-1.5,-0.3,1.08,GOOD
1790985821269,725,2093.0,-47.79982095100954,32000.0,80.3,98.0,-1.5,-0.3,1.08,GOOD
1790985821503,726,2088.0,-49.64914874941205,32000.0,83.9,98.0,-1.4,-0.2,1.08,GOOD
1790985821503,727,2036.0,-58.841576640138314,32000.0,83.9,98.0,-1.4,-0.2,1.08,GOOD
1790985821503,728,2043.0,-75.49272580307603,32000.0,83.9,98.0,-1.4,-0.2,1.08,GOOD
1790985821503,729,2102.0,-90.84583623399706,32000.0,83.9,98.0,-1.4,-0.2,1.08,GOOD
1790985821503,730,2080.0,-93.16332817946714,32000.0,83.9,98.0,-1.4,-0.2,1.08,GOOD
1790985821503,731,2104.0,-82.78054863091336,32000.0,83.9,98.0,-1.4,-0.2,1.08,GOOD
1790985821503,732,2096.0,-68.78292531493977,32000.0,83.9,98.0,-1.4,-0.2,1.08,GOOD
1790985821503,733,2033.0,-58.83675519507195,32000.0,83.9,98.0,-1.4,-0.2,1.08,GOOD
1790985821503,734,2048.0,-59.47757500339319,32000.0,83.9,98.0,-1.4,-0.2,1.08,GOOD
1790985821503,735,2068.0,-70.60262406237274,32000.0,83.9,98.0,-1.4,-0.2,1.08,GOOD
1790985821503,736,2071.0,-83.25496825642749,32000.0,83.9,98.0,-1.4,-0.2,1.08,GOOD
1790985821503,737,2098.0,-88.24587182321446,32000.0,83.9,98.0,-1.4,-0.2,1.08,GOOD
1790985821503,738,2096.0,-80.57382415925196,32000.0,83.9,98.0,-1.4,-0.2,1.08,GOOD
1790985821503,739,2126.0,-61.173083201296265,32000.0,83.9,98.0,-1.4,-0.2,1.08,GOOD
1790985821503,740,2134.0,-37.25312482619777,32000.0,83.9,98.0,-1.4,-0.2,1.08,GOOD
1790985821503,741,2155.0,-17.13631998952323,32000.0,83.9,98.0,-1.4,-0.2,1.08,GOOD
1790985821503,742,2135.0,-4.664955100757908,32000.0,83.9,98.0,-1.4,-0.2,1.08,GOOD
1790985821503,743,2132.0,1.1828307524720623,32000.0,83.9,98.0,-1.4,-0.2,1.08,GOOD
1790985821503,744,2136.0,3.228270724814892,32000.0,83.9,98.0,-1.4,-0.2,1.08,GOOD
1790985821503,745,2168.0,4.361162820968081,32000.0,83.9,98.0,-1.4,-0.2,1.08,GOOD
1790985821503,746,2149.0,6.0572660183683675,32000.0,83.9,98.0,-1.4,-0.2,1.08,GOOD
1790985821503,747,2143.0,7.15154880248239,32000.0,83.9,98.0,-1.4,-0.2,1.08,GOOD
1790985821503,748,2140.0,6.997760581977985,32000.0,83.9,98.0,-1.4,-0.2,1.08,GOOD
1790985821503,749,2120.0,6.410006510397225,32000.0,83.9,98.0,-1.4,-0.2,1.08,GOOD
1790985821503,750,2120.0,3.1766084270515975,32000.0,83.9,98.0,-1.4,-0.2,1.08,GOOD
1790985821504,751,2124.0,-5.495497530214296,32000.0,83.9,98.0,-1.4,-0.2,1.08,GOOD
1790985821504,752,2119.0,-16.58824874152356,32000.0,83.9,98.0,-1.4,-0.2,1.08,GOOD
1790985821504,753,2079.0,-25.10257831871025,32000.0,83.9,98.0,-1.4,-0.2,1.08,GOOD
1790985821504,754,2070.0,-31.73294842855151,32000.0,83.9,98.0,-1.4,-0.2,1.08,GOOD
1790985821504,755,2068.0,-40.78614777518108,32000.0,83.9,98.0,-1.4,-0.2,1.08,GOOD
1790985821504,756,2058.0,-53.88194020398298,32000.0,83.9,98.0,-1.4,-0.2,1.08,GOOD
1790985821504,757,2091.0,-67.08630456203821,32000.0,83.9,98.0,-1.4,-0.2,1.08,GOOD
1790985821504,758,2078.0,-72.30516655659619,32000.0,83.9,98.0,-1.4,-0.2,1.08,GOOD
1790985821504,759,2086.0,-65.93339734249959,32000.0,83.9,98.0,-1.4,-0.2,1.08,GOOD
1790985821504,760,2093.0,-53.45160432249847,32000.0,83.9,98.0,-1.4,-0.2,1.08,GOOD
1790985821504,761,1992.0,-46.85223979407148,32000.0,83.9,98.0,-1.4,-0.2,1.08,GOOD
1790985821504,762,1977.0,-59.581012790690295,32000.0,83.9,98.0,-1.4,-0.2,1.08,GOOD
1790985821504,763,1973.0,-91.77111274447662,32000.0,83.9,98.0,-1.4,-0.2,1.08,GOOD
1790985821504,764,1967.0,-127.02874007702698,32000.0,83.9,98.0,-1.4,-0.2,1.08,GOOD
1790985821504,765,2144.0,-144.22388263063988,32000.0,83.9,98.0,-1.4,-0.2,1.08,GOOD
1790985821504,766,2131.0,-125.79978082077652,32000.0,83.9,98.0,-1.4,-0.2,1.08,GOOD
1790985821504,767,2131.0,-75.18829451584371,32000.0,83.9,98.0,-1.4,-0.2,1.08,GOOD
1790985821504,768,2122.0,-19.007259804144528,32000.0,83.9,98.0,-1.4,-0.2,1.08,GOOD
1790985821504,769,2106.0,18.404632947671466,32000.0,83.9,98.0,-1.4,-0.2,1.08,GOOD
1790985821504,770,2093.0,27.34003578949186,32000.0,83.9,98.0,-1.4,-0.2,1.08,GOOD
1790985821504,771,2087.0,10.97818166521561,32000.0,83.9,98.0,-1.4,-0.2,1.08,GOOD
1790985821504,772,2097.0,-15.693138905736486,32000.0,83.9,98.0,-1.4,-0.2,1.08,GOOD
1790985821504,773,2275.0,-26.81381293193992,32000.0,83.9,98.0,-1.4,-0.2,1.08,GOOD
1790985821504,774,2284.0,2.1819184146258035,32000.0,83.9,98.0,-1.4,-0.2,1.08,GOOD
1790985821504,775,2294.0,66.24975927569677,32000.0,83.9,98.0,-1.4,-0.2,1.08,GOOD
1790985821821,776,2301.0,131.94334784218017,-71.0,83.9,98.0,-1.4,-0.4,1.08,GOOD
1790985821821,777,2444.0,179.70180455893887,-82.0,83.9,98.0,-1.4,-0.4,1.08,GOOD
1790985821821,778,2428.0,219.013993287894,-80.0,83.9,98.0,-1.4,-0.4,1.08,GOOD
1790985821821,779,2402.0,255.81122935660983,-77.0,83.9,98.0,-1.4,-0.4,1.08,GOOD
1790985821821,780,2402.0,278.28801398834975,-76.0,83.9,98.0,-1.4,-0.4,1.08,GOOD
1790985821821,781,1912.0,261.16395290503897,-75.0,83.9,98.0,-1.4,-0.4,1.08,GOOD
1790985821821,782,1886.0,168.77855248775947,-64.0,83.9,98.0,-1.4,-0.4,1.08,GOOD
1790985821821,783,1858.0,5.026659382603096,-64.0,83.9,98.0,-1.4,-0.4,1.08,GOOD
1790985821821,784,1831.0,-168.12867634963303,-63.0,83.9,98.0,-1.4,-0.4,1.08,GOOD
1790985821821,785,2032.0,-285.3081097287248,-61.0,83.9,98.0,-1.4,-0.4,1.08,GOOD
1790985821821,786,2035.0,-308.4002479936055,-61.0,83.9,98.0,-1.4,-0.4,1.08,GOOD
1790985821821,787,2014.0,-244.25822118258486,-61.0,83.9,98.0,-1.4,-0.4,1.08,GOOD
1790985821821,788,2003.0,-149.10841154118128,-62.0,83.9,98.0,-1.4,-0.4,1.08,GOOD
1790985821821,789,2105.0,-79.63451727221893,-63.0,83.9,98.0,-1.4,-0.4,1.08,GOOD
1790985821821,790,2156.0,-48.301585055055554,-60.0,83.9,98.0,-1.4,-0.4,1.08,GOOD
1790985821821,791,2156.0,-33.15641878116549,-58.0,83.9,98.0,-1.4,-0.4,1.08,GOOD
1790985821821,792,2155.0,-12.531847441361332,-56.0,83.9,98.0,-1.4,-0.4,1.08,GOOD
1790985821821,793,2145.0,16.73293446771064,-55.0,83.9,98.0,-1.4,-0.4,1.08,GOOD
1790985821821,794,2172.0,42.08680939492232,-52.0,83.9,98.0,-1.4,-0.4,1.08,GOOD
1790985821821,795,2146.0,49.55995880840402,-50.0,83.9,98.0,-1.4,-0.4,1.08,GOOD
1790985821821,796,2152.0,38.37570954441186,-49.0,83.9,98.0,-1.4,-0.4,1.08,GOOD
1790985821821,797,2142.0,23.191397295671944,-46.0,83.9,98.0,-1.4,-0.4,1.08,GOOD
1790985821821,798,2152.0,19.222887262280167,-46.0,83.9,98.0,-1.4,-0.4,1.08,GOOD
1790985821821,799,2137.0,25.048085334452956,-42.0,83.9,98.0,-1.4,-0.4,1.08,GOOD
1790985821821,800,2156.0,27.211387292880644,-41.0,83.9,98.0,-1.4,-0.4,1.08,GOOD
1790985821822,801,2183.0,22.035772182069895,32000.0,83.9,98.0,-1.4,-0.4,1.08,GOOD
1790985821822,802,2260.0,24.746301752133462,32000.0,83.9,98.0,-1.4,-0.4,1.08,GOOD
1790985821822,803,2254.0,50.68465087792564,32000.0,83.9,98.0,-1.4,-0.4,1.08,GOOD
1790985821822,804,2222.0,90.23001337099535,32000.0,83.9,98.0,-1.4,-0.4,1.08,GOOD
1790985821822,805,2244.0,116.86640783674403,32000.0,83.9,98.0,-1.4,-0.4,1.08,GOOD
1790985821822,806,2321.0,123.06692347385717,32000.0,83.9,98.0,-1.4,-0.4,1.08,GOOD
1790985821822,807,2329.0,128.0158155561366,32000.0,83.9,98.0,-1.4,-0.4,1.08,GOOD
1790985821822,808,2323.0,146.27030455386426,32000.0,83.9,98.0,-1.4,-0.4,1.08,GOOD
1790985821822,809,2265.0,167.9505000314751,32000.0,83.9,98.0,-1.4,-0.4,1.08,GOOD
1790985821822,810,2226.0,171.9911950448955,32000.0,83.9,98.0,-1.4,-0.4,1.08,GOOD
1790985821822,811,2219.0,149.42495122849573,32000.0,83.9,98.0,-1.4,-0.4,1.08,GOOD
1790985821822,812,2194.0,110.73794050735202,32000.0,83.9,98.0,-1.4,-0.4,1.08,GOOD
1790985821822,813,2392.0,80.65406052021612,32000.0,83.9,98.0,-1.4,-0.4,1.08,GOOD
1790985821822,814,2378.0,86.89106079774609,32000.0,83.9,98.0,-1.4,-0.4,1.08,GOOD
1790985821822,815,2356.0,130.99614227940395,32000.0,83.9,98.0,-1.4,-0.4,1.08,GOOD
1790985821822,816,2411.0,184.48073797051273,32000.0,83.9,98.0,-1.4,-0.4,1.08,GOOD
1790985821822,817,2310.0,220.97754545570874,32000.0,83.9,98.0,-1.4,-0.4,1.08,GOOD
1790985821822,818,2147.0,219.59250163962577,32000.0,83.9,98.0,-1.4,-0.4,1.08,GOOD
1790985821822,819,2284.0,170.91672667241258,32000.0,83.9,98.0,-1.4,-0.4,1.08,GOOD
1790985821822,820,2283.0,105.50078036015171,32000.0,83.9,98.0,-1.4,-0.4,1.08,GOOD
1790985821822,821,2097.0,59.79455202603888,32000.0,83.9,98.0,-1.4,-0.4,1.08,GOOD
1790985821822,822,2092.0,27.26038635961436,32000.0,83.9,98.0,-1.4,-0.4,1.08,GOOD
1790985821822,823,2065.0,-11.087800195778323,32000.0,83.9,98.0,-1.4,-0.4,1.08,GOOD
1790985821822,824,2051.0,-53.84111850277367,32000.0,83.9,98.0,-1.4,-0.4,1.08,GOOD
1790985821822,825,2159.0,-88.59362101794575,32000.0,83.9,98.0,-1.4,-0.4,1.08,GOOD
1790985821823,826,2135.0,-100.06283662345709,32000.0,83.9,98.0,-1.4,-0.4,1.08,GOOD
1790985821823,827,2140.0,-83.39251425453713,32000.0,83.9,98.0,-1.4,-0.4,1.08,GOOD
1790985821823,828,2115.0,-52.82230868313436,32000.0,83.9,98.0,-1.4,-0.4,1.08,GOOD
1790985821823,829,2037.0,-32.15436837081363,32000.0,83.9,98.0,-1.4,-0.4,1.08,GOOD
1790985821823,830,2026.0,-41.41057495200725,32000.0,83.9,98.0,-1.4,-0.4,1.08,GOOD
1790985821823,831,2019.0,-79.86683182009378,32000.0,83.9,98.0,-1.4,-0.4,1.08,GOOD
1790985821823,832,2038.0,-123.5803950219599,32000.0,83.9,98.0,-1.4,-0.4,1.08,GOOD
1790985821823,833,2067.0,-146.3771270061957,32000.0,83.9,98.0,-1.4,-0.4,1.08,GOOD
1790985821823,834,2027.0,-141.5504841854439,32000.0,83.9,98.0,-1.4,-0.4,1.08,GOOD
1790985821823,835,1988.0,-126.71786623716511,32000.0,83.9,98.0,-1.4,-0.4,1.08,GOOD
1790985821823,836,2017.0,-122.95263514722187,32000.0,83.9,98.0,-1.4,-0.4,1.08,GOOD
1790985821823,837,2011.0,-131.48319888985156,32000.0,83.9,98.0,-1.4,-0.4,1.08,GOOD
1790985821823,838,2005.0,-140.840250153395,32000.0,83.9,98.0,-1.4,-0.4,1.08,GOOD
1790985821823,839,1995.0,-145.22128889932515,32000.0,83.9,98.0,-1.4,-0.4,1.08,GOOD
1790985821823,840,1957.0,-147.67410412799563,32000.0,83.9,98.0,-1.4,-0.4,1.08,GOOD
1790985821823,841,2021.0,-151.49709824899884,32000.0,83.9,98.0,-1.4,-0.4,1.08,GOOD
1790985821823,842,2045.0,-151.10724668722162,32000.0,83.9,98.0,-1.4,-0.4,1.08,GOOD
1790985821823,843,2021.0,-140.03800181150805,32000.0,83.9,98.0,-1.4,-0.4,1.08,GOOD
1790985821823,844,2014.0,-123.74640296213268,32000.0,83.9,98.0,-1.4,-0.4,1.08,GOOD
1790985821823,845,1997.0,-112.43775173827981,32000.0,83.9,98.0,-1.4,-0.4,1.08,GOOD
1790985821823,846,2052.0,-108.37594224118045,32000.0,83.9,98.0,-1.4,-0.4,1.08,GOOD
1790985821823,847,2039.0,-106.07919920769606,32000.0,83.9,98.0,-1.4,-0.4,1.08,GOOD
1790985821823,848,2037.0,-101.98039053547225,32000.0,83.9,98.0,-1.4,-0.4,1.08,GOOD
1790985821823,849,1993.0,-98.68866692368883,32000.0,83.9,98.0,-1.4,-0.4,1.08,GOOD
1790985821823,850,2002.0,-99.50494928538927,32000.0,83.9,98.0,-1.4,-0.4,1.08,GOOD
1790985822038,851,2014.0,-103.68806737417819,32000.0,83.9,98.0,-1.4,-0.3,1.09,GOOD
1790985822038,852,2021.0,-108.17182842711645,32000.0,83.9,98.0,-1.4,-0.3,1.09,GOOD
1790985822038,853,1948.0,-113.80454848596766,32000.0,83.9,98.0,-1.4,-0.3,1.09,GOOD
1790985822038,854,1963.0,-124.23213619516555,32000.0,83.9,98.0,-1.4,-0.3,1.09,GOOD
1790985822038,855,1970.0,-135.89406917928986,32000.0,83.9,98.0,-1.4,-0.3,1.09,GOOD
1790985822038,856,1981.0,-140.89979755371573,32000.0,83.9,98.0,-1.4,-0.3,1.09,GOOD
1790985822038,857,1955.0,-140.32432008093957,32000.0,83.9,98.0,-1.4,-0.3,1.09,GOOD
1790985822038,858,1923.0,-142.86753195597677,32000.0,83.9,98.0,-1.4,-0.3,1.09,GOOD
1790985822038,859,1905.0,-152.50858737829054,32000.0,83.9,98.0,-1.4,-0.3,1.09,GOOD
1790985822038,860,1900.0,-165.01012941279924,32000.0,83.9,98.0,-1.4,-0.3,1.09,GOOD
1790985822038,861,1902.0,-175.84130989794568,32000.0,83.9,98.0,-1.4,-0.3,1.09,GOOD
1790985822038,862,2084.0,-177.98026794633174,32000.0,83.9,98.0,-1.4,-0.3,1.09,GOOD
1790985822038,863,2090.0,-155.1107744078179,32000.0,83.9,98.0,-1.4,-0.3,1.09,GOOD
1790985822038,864,2077.0,-102.14891127153957,32000.0,83.9,98.0,-1.4,-0.3,1.09,GOOD
1790985822038,865,2079.0,-39.814413850802076,32000.0,83.9,98.0,-1.4,-0.3,1.09,GOOD
1790985822038,866,2062.0,5.517391453569509,32000.0,83.9,98.0,-1.4,-0.3,1.09,GOOD
1790985822038,867,2068.0,19.755893851898207,32000.0,83.9,98.0,-1.4,-0.3,1.09,GOOD
1790985822038,868,2072.0,6.352209368548268,32000.0,83.9,98.0,-1.4,-0.3,1.09,GOOD
1790985822038,869,2078.0,-15.231117680476792,32000.0,83.9,98.0,-1.4,-0.3,1.09,GOOD
1790985822038,870,2051.0,-25.449897674206547,32000.0,83.9,98.0,-1.4,-0.3,1.09,GOOD
1790985822038,871,2010.0,-23.54221683523518,32000.0,83.9,98.0,-1.4,-0.3,1.09,GOOD
1790985822038,872,2012.0,-25.30016661814887,32000.0,83.9,98.0,-1.4,-0.3,1.09,GOOD
1790985822038,873,2001.0,-41.1230692687487,32000.0,83.9,98.0,-1.4,-0.3,1.09,GOOD
1790985822038,874,2054.0,-62.13152997198979,32000.0,83.9,98.0,-1.4,-0.3,1.09,GOOD
1790985822038,875,2069.0,-68.46345998970273,32000.0,83.9,98.0,-1.4,-0.3,1.09,GOOD
1790985822040,876,2056.0,-51.864839470275314,32000.0,83.9,98.0,-1.4,-0.3,1.09,GOOD
1790985822040,877,2054.0,-26.30171950481044,32000.0,83.9,98.0,-1.4,-0.3,1.09,GOOD
1790985822040,878,2074.0,-9.96491690449355,32000.0,83.9,98.0,-1.4,-0.3,1.09,GOOD
1790985822040,879,1997.0,-8.780277497665814,32000.0,83.9,98.0,-1.4,-0.3,1.09,GOOD
1790985822040,880,2008.0,-20.61472817932796,32000.0,83.9,98.0,-1.4,-0.3,1.09,GOOD
1790985822040,881,1967.0,-40.1484694122138,32000.0,83.9,98.0,-1.4,-0.3,1.09,GOOD
1790985822040,882,2095.0,-57.096425257802146,32000.0,83.9,98.0,-1.4,-0.3,1.09,GOOD
1790985822040,883,2090.0,-57.508106012109025,32000.0,83.9,98.0,-1.4,-0.3,1.09,GOOD
1790985822040,884,2094.0,-36.637118717293404,32000.0,83.9,98.0,-1.4,-0.3,1.09,GOOD
1790985822040,885,2103.0,-4.636290468754133,32000.0,83.9,98.0,-1.4,-0.3,1.09,GOOD
1790985822040,886,2074.0,24.811856599010927,32000.0,83.9,98.0,-1.4,-0.3,1.09,GOOD
1790985822040,887,2063.0,39.59097059370708,32000.0,83.9,98.0,-1.4,-0.3,1.09,GOOD
1790985822040,888,2042.0,32.286693792707354,32000.0,83.9,98.0,-1.4,-0.3,1.09,GOOD
1790985822040,889,2055.0,8.66784443988988,32000.0,83.9,98.0,-1.4,-0.3,1.09,GOOD
1790985822040,890,2112.0,-11.720939067095717,32000.0,83.9,98.0,-1.4,-0.3,1.09,GOOD
1790985822040,891,2116.0,-9.909037882064597,32000.0,83.9,98.0,-1.4,-0.3,1.09,GOOD
1790985822040,892,2113.0,13.097513045126316,32000.0,83.9,98.0,-1.4,-0.3,1.09,GOOD
1790985822040,893,2094.0,37.8808182979426,32000.0,83.9,98.0,-1.4,-0.3,1.09,GOOD
1790985822040,894,2056.0,46.92658208811279,32000.0,83.9,98.0,-1.4,-0.3,1.09,GOOD
1790985822040,895,2064.0,37.42320039275769,32000.0,83.9,98.0,-1.4,-0.3,1.09,GOOD
1790985822040,896,2065.0,19.413005564484425,32000.0,83.9,98.0,-1.4,-0.3,1.09,GOOD
1790985822040,897,2044.0,3.4118201040666873,32000.0,83.9,98.0,-1.4,-0.3,1.09,GOOD
1790985822040,898,1981.0,-10.99582981795184,32000.0,83.9,98.0,-1.4,-0.3,1.09,GOOD
1790985822040,899,1990.0,-29.74788629358143,32000.0,83.9,98.0,-1.4,-0.3,1.09,GOOD
1790985822040,900,1996.0,-50.369480124800674,32000.0,83.9,98.0,-1.4,-0.3,1.09,GOOD
1790985822267,901,1997.0,-64.18033918170534,32000.0,88.5,98.0,-1.5,-0.3,1.07,GOOD
1790985822267,902,2003.0,-68.52056941049666,32000.0,88.5,98.0,-1.5,-0.3,1.07,GOOD
1790985822267,903,2002.0,-66.55385876153474,32000.0,88.5,98.0,-1.5,-0.3,1.07,GOOD
1790985822267,904,2001.0,-60.97426746239916,32000.0,88.5,98.0,-1.5,-0.3,1.07,GOOD
1790985822267,905,1969.0,-54.95297877125578,32000.0,88.5,98.0,-1.5,-0.3,1.07,GOOD
1790985822267,906,1942.0,-55.328812776422645,32000.0,88.5,98.0,-1.5,-0.3,1.07,GOOD
1790985822267,907,1969.0,-66.3633037434208,32000.0,88.5,98.0,-1.5,-0.3,1.07,GOOD
1790985822267,908,1965.0,-81.46445028591316,32000.0,88.5,98.0,-1.5,-0.3,1.07,GOOD
1790985822267,909,1985.0,-89.29020158525218,32000.0,88.5,98.0,-1.5,-0.3,1.07,GOOD
1790985822267,910,2209.0,-75.90099085959335,32000.0,88.5,98.0,-1.5,-0.3,1.07,GOOD
1790985822267,911,2222.0,-24.90683170522238,32000.0,88.5,98.0,-1.5,-0.3,1.07,GOOD
1790985822267,912,2245.0,58.0840233050379,32000.0,88.5,98.0,-1.5,-0.3,1.07,GOOD
1790985822267,913,2263.0,141.61924550000862,32000.0,88.5,98.0,-1.5,-0.3,1.07,GOOD
1790985822267,914,2561.0,212.44995703268523,32000.0,88.5,98.0,-1.5,-0.3,1.07,GOOD
1790985822267,915,2560.0,290.3083372057277,32000.0,88.5,98.0,-1.5,-0.3,1.07,GOOD
1790985822267,916,2559.0,380.15325293856506,32000.0,88.5,98.0,-1.5,-0.3,1.07,GOOD
1790985822267,917,2570.0,455.6141210195801,32000.0,88.5,98.0,-1.5,-0.3,1.07,GOOD
1790985822267,918,2205.0,484.56947393235873,32000.0,88.5,98.0,-1.5,-0.3,1.07,GOOD
1790985822267,919,2196.0,437.6962893310581,32000.0,88.5,98.0,-1.5,-0.3,1.07,GOOD
1790985822267,920,2156.0,317.844211326483,32000.0,88.5,98.0,-1.5,-0.3,1.07,GOOD
1790985822267,921,2135.0,174.32675740628846,32000.0,88.5,98.0,-1.5,-0.3,1.07,GOOD
1790985822267,922,1818.0,48.132947539855714,32000.0,88.5,98.0,-1.5,-0.3,1.07,GOOD
1790985822267,923,1886.0,-57.544418416893684,32000.0,88.5,98.0,-1.5,-0.3,1.07,GOOD
1790985822267,924,1879.0,-140.18037773552092,32000.0,88.5,98.0,-1.5,-0.3,1.07,GOOD
1790985822267,925,1875.0,-189.61226066600764,32000.0,88.5,98.0,-1.5,-0.3,1.07,GOOD
1790985822268,926,2064.0,-206.58004580319647,32000.0,88.5,98.0,-1.5,-0.3,1.07,GOOD
1790985822268,927,2079.0,-186.1971496747047,32000.0,88.5,98.0,-1.5,-0.3,1.07,GOOD
1790985822268,928,2087.0,-123.09151475792197,32000.0,88.5,98.0,-1.5,-0.3,1.07,GOOD
1790985822268,929,2078.0,-39.19403859779334,32000.0,88.5,98.0,-1.5,-0.3,1.07,GOOD
1790985822268,930,2070.0,25.585665767547738,32000.0,88.5,98.0,-1.5,-0.3,1.07,GOOD
1790985822268,931,2076.0,44.0776539060174,32000.0,88.5,98.0,-1.5,-0.3,1.07,GOOD
1790985822268,932,2085.0,23.410290922941083,32000.0,88.5,98.0,-1.5,-0.3,1.07,GOOD
1790985822268,933,2111.0,-1.4713104362109606,32000.0,88.5,98.0,-1.5,-0.3,1.07,GOOD
1790985822268,934,2028.0,-4.668588029502366,32000.0,88.5,98.0,-1.5,-0.3,1.07,GOOD
1790985822268,935,2068.0,4.969164955857835,32000.0,88.5,98.0,-1.5,-0.3,1.07,GOOD
1790985822268,936,2049.0,4.975122524980188,32000.0,88.5,98.0,-1.5,-0.3,1.07,GOOD
1790985822268,937,2083.0,-8.60824711420009,32000.0,88.5,98.0,-1.5,-0.3,1.07,GOOD
1790985822268,938,2132.0,-17.65566446517875,32000.0,88.5,98.0,-1.5,-0.3,1.07,GOOD
1790985822268,939,2125.0,-3.306146202813565,32000.0,88.5,98.0,-1.5,-0.3,1.07,GOOD
1790985822268,940,2099.0,28.034280188480263,32000.0,88.5,98.0,-1.5,-0.3,1.07,GOOD
1790985822268,941,2081.0,49.250188738771406,32000.0,88.5,98.0,-1.5,-0.3,1.07,GOOD
1790985822268,942,2092.0,45.13337876937537,32000.0,88.5,98.0,-1.5,-0.3,1.07,GOOD
1790985822268,943,2115.0,28.029615604059458,32000.0,88.5,98.0,-1.5,-0.3,1.07,GOOD
1790985822268,944,2109.0,19.30583963234202,32000.0,88.5,98.0,-1.5,-0.3,1.07,GOOD
1790985822268,945,2089.0,23.67649081656085,32000.0,88.5,98.0,-1.5,-0.3,1.07,GOOD
1790985822268,946,2086.0,28.82859927231422,32000.0,88.5,98.0,-1.5,-0.3,1.07,GOOD
1790985822268,947,2097.0,25.87903768807641,32000.0,88.5,98.0,-1.5,-0.3,1.07,GOOD
1790985822268,948,2096.0,19.292472127443126,32000.0,88.5,98.0,-1.5,-0.3,1.07,GOOD
1790985822268,949,2260.0,23.29967892238571,32000.0,88.5,98.0,-1.5,-0.3,1.07,GOOD
1790985822268,950,2246.0,52.52483465299039,32000.0,88.5,98.0,-1.5,-0.3,1.07,GOOD
1790985822345,951,2186.0,99.49606700294412,32000.0,88.5,98.0,-1.4,-0.2,1.09,GOOD
1790985822345,952,2258.0,137.92493216995646,32000.0,88.5,98.0,-1.4,-0.2,1.09,GOOD
1790985822345,953,2260.0,158.4022970287438,32000.0,88.5,98.0,-1.4,-0.2,1.09,GOOD
1790985822345,954,2228.0,167.69924612916967,32000.0,88.5,98.0,-1.4,-0.2,1.09,GOOD
1790985822345,955,2236.0,166.4184740202715,32000.0,88.5,98.0,-1.4,-0.2,1.09,GOOD
1790985822345,956,2212.0,154.66913241567403,32000.0,88.5,98.0,-1.4,-0.2,1.09,GOOD
1790985822345,957,2059.0,133.36456840216627,32000.0,88.5,98.0,-1.4,-0.2,1.09,GOOD
1790985822345,958,2170.0,100.17858543170438,32000.0,88.5,98.0,-1.4,-0.2,1.09,GOOD
1790985822345,959,2141.0,64.38714056694604,32000.0,88.5,98.0,-1.4,-0.2,1.09,GOOD
1790985822345,960,2130.0,40.13774900124772,32000.0,88.5,98.0,-1.4,-0.2,1.09,GOOD
1790985822345,961,2266.0,33.82138041341505,32000.0,88.5,98.0,-1.4,-0.2,1.09,GOOD
1790985822345,962,2307.0,56.04467892169676,32000.0,88.5,98.0,-1.4,-0.2,1.09,GOOD
1790985822345,963,2321.0,109.58630654394423,32000.0,88.5,98.0,-1.4,-0.2,1.09,GOOD
1790985822345,964,2478.0,177.7463946195988,32000.0,88.5,98.0,-1.4,-0.2,1.09,GOOD
1790985822345,965,2449.0,245.11479847540215,32000.0,88.5,98.0,-1.4,-0.2,1.09,GOOD
1790985822345,966,2462.0,301.40225497801794,32000.0,88.5,98.0,-1.4,-0.2,1.09,GOOD
1790985822345,967,2473.0,337.7104728154928,32000.0,88.5,98.0,-1.4,-0.2,1.09,GOOD
1790985822345,968,2293.0,347.19708255933,32000.0,88.5,98.0,-1.4,-0.2,1.09,GOOD
1790985822345,969,2334.0,320.2933669734715,32000.0,88.5,98.0,-1.4,-0.2,1.09,GOOD
1790985822345,970,2296.0,262.02712404036714,32000.0,88.5,98.0,-1.4,-0.2,1.09,GOOD
1790985822345,971,2296.0,198.75475665670913,32000.0,88.5,98.0,-1.4,-0.2,1.09,GOOD
1790985822345,972,2149.0,148.3694090001497,32000.0,88.5,98.0,-1.4,-0.2,1.09,GOOD
1790985822345,973,2162.0,106.35941386957464,32000.0,88.5,98.0,-1.4,-0.2,1.09,GOOD
1790985822345,974,2161.0,66.30123972282047,32000.0,88.5,98.0,-1.4,-0.2,1.09,GOOD
1790985822345,975,1992.0,25.60542760988549,32000.0,88.5,98.0,-1.4,-0.2,1.09,GOOD
1790985822458,976,1989.0,-25.897987974892388,32000.0,88.5,98.0,-1.3,-0.3,1.08,GOOD
1790985822458,977,2006.0,-86.5526951788406,32000.0,88.5,98.0,-1.3,-0.3,1.08,GOOD
1790985822458,978,1955.0,-135.25966036224256,32000.0,88.5,98.0,-1.3,-0.3,1.08,GOOD
1790985822458,979,2023.0,-159.90638432148856,32000.0,88.5,98.0,-1.3,-0.3,1.08,GOOD
1790985822458,980,1990.0,-163.88064610777872,32000.0,88.5,98.0,-1.3,-0.3,1.08,GOOD
1790985822458,981,2000.0,-155.6684328505059,32000.0,88.5,98.0,-1.3,-0.3,1.08,GOOD
1790985822458,982,2121.0,-138.77373563718788,32000.0,88.5,98.0,-1.3,-0.3,1.08,GOOD
1790985822458,983,2132.0,-106.59167290347055,32000.0,88.5,98.0,-1.3,-0.3,1.08,GOOD
1790985822458,984,2111.0,-62.000970306518056,32000.0,88.5,98.0,-1.3,-0.3,1.08,GOOD
1790985822458,985,2092.0,-25.505537168358764,32000.0,88.5,98.0,-1.3,-0.3,1.08,GOOD
1790985822458,986,1947.0,-16.98828643214367,32000.0,88.5,98.0,-1.3,-0.3,1.08,GOOD
1790985822458,987,1965.0,-44.02235094717747,32000.0,88.5,98.0,-1.3,-0.3,1.08,GOOD
1790985822458,988,1972.0,-94.49658078343187,32000.0,88.5,98.0,-1.3,-0.3,1.08,GOOD
1790985822458,989,1961.0,-143.28107698333235,32000.0,88.5,98.0,-1.3,-0.3,1.08,GOOD
1790985822458,990,1930.0,-174.82720103668146,32000.0,88.5,98.0,-1.3,-0.3,1.08,GOOD
1790985822458,991,1912.0,-188.56254482793855,32000.0,88.5,98.0,-1.3,-0.3,1.08,GOOD
1790985822458,992,1823.0,-193.73918470365598,32000.0,88.5,98.0,-1.3,-0.3,1.08,GOOD
1790985822458,993,1950.0,-201.42210911698288,32000.0,88.5,98.0,-1.3,-0.3,1.08,GOOD
1790985822458,994,1936.0,-209.27870065594965,32000.0,88.5,98.0,-1.3,-0.3,1.08,GOOD
1790985822458,995,1931.0,-207.89633749258118,32000.0,88.5,98.0,-1.3,-0.3,1.08,GOOD
1790985822458,996,1949.0,-195.24668843189812,32000.0,88.5,98.0,-1.3,-0.3,1.08,GOOD
1790985822458,997,2057.0,-169.04589362270633,32000.0,88.5,98.0,-1.3,-0.3,1.08,GOOD
1790985822458,998,2041.0,-127.758631587237,32000.0,88.5,98.0,-1.3,-0.3,1.08,GOOD
1790985822458,999,2021.0,-85.99657369783895,32000.0,88.5,98.0,-1.3,-0.3,1.08,GOOD
1790985822458,1000,2003.0,-64.18714186503956,32000.0,88.5,98.0,-1.3,-0.3,1.08,GOOD
1790985822649,1001,1998.0,-63.87859767595763,32000.0,88.5,98.0,-1.3,-0.4,1.08,GOOD
1790985822649,1002,2010.0,-71.03370375000159,32000.0,88.5,98.0,-1.3,-0.4,1.08,GOOD
1790985822649,1003,2009.0,-76.61144450266559,32000.0,88.5,98.0,-1.3,-0.4,1.08,GOOD
1790985822649,1004,1993.0,-82.51427646287972,32000.0,88.5,98.0,-1.3,-0.4,1.08,GOOD
1790985822649,1005,1847.0,-96.49949458299909,32000.0,88.5,98.0,-1.3,-0.4,1.08,GOOD
1790985822649,1006,1952.0,-121.43459486607104,32000.0,88.5,98.0,-1.3,-0.4,1.08,GOOD
1790985822649,1007,1970.0,-142.7676563552099,32000.0,88.5,98.0,-1.3,-0.4,1.08,GOOD
1790985822649,1008,1955.0,-146.02129587178013,32000.0,88.5,98.0,-1.3,-0.4,1.08,GOOD
1790985822649,1009,1922.0,-139.8985766009967,32000.0,88.5,98.0,-1.3,-0.4,1.08,GOOD
1790985822649,1010,2056.0,-132.647247797314,32000.0,88.5,98.0,-1.3,-0.4,1.08,GOOD
1790985822649,1011,2054.0,-110.81075484337039,32000.0,88.5,98.0,-1.3,-0.4,1.08,GOOD
1790985822649,1012,2065.0,-68.39864647410242,32000.0,88.5,98.0,-1.3,-0.4,1.08,GOOD
1790985822649,1013,2024.0,-27.309118101593445,32000.0,88.5,98.0,-1.3,-0.4,1.08,GOOD
1790985822649,1014,2031.0,-10.793507667193195,32000.0,88.5,98.0,-1.3,-0.4,1.08,GOOD
1790985822649,1015,2026.0,-17.389059487889558,32000.0,88.5,98.0,-1.3,-0.4,1.08,GOOD
1790985822649,1016,1984.0,-31.209391418217088,32000.0,88.5,98.0,-1.3,-0.4,1.08,GOOD
1790985822649,1017,1967.0,-45.797729535635824,32000.0,88.5,98.0,-1.3,-0.4,1.08,GOOD
1790985822649,1018,1938.0,-65.5907055397885,32000.0,88.5,98.0,-1.3,-0.4,1.08,GOOD
1790985822649,1019,1915.0,-92.11282789744114,32000.0,88.5,98.0,-1.3,-0.4,1.08,GOOD
1790985822649,1020,2043.0,-113.61776877096366,32000.0,88.5,98.0,-1.3,-0.4,1.08,GOOD
1790985822649,1021,2054.0,-109.12453231127382,32000.0,88.5,98.0,-1.3,-0.4,1.08,GOOD
1790985822649,1022,2067.0,-74.13217860380814,32000.0,88.5,98.0,-1.3,-0.4,1.08,GOOD
1790985822649,1023,2045.0,-30.107739927809103,32000.0,88.5,98.0,-1.3,-0.4,1.08,GOOD
1790985822649,1024,2046.0,0.10041106054297133,32000.0,88.5,98.0,-1.3,-0.4,1.08,GOOD
1790985822649,1025,2034.0,10.23518398684027,32000.0,88.5,98.0,-1.3,-0.4,1.08,GOOD
1790985822905,1026,2035.0,5.531695619155341,-823.0,91.9,98.0,-1.4,-0.3,1.08,GOOD
1790985822905,1027,2035.0,-6.608580682905404,-817.0,91.9,98.0,-1.4,-0.3,1.08,GOOD
1790985822905,1028,2118.0,-15.737013498422568,-813.0,91.9,98.0,-1.4,-0.3,1.08,GOOD
1790985822905,1029,2121.0,-8.043926255311241,-806.0,91.9,98.0,-1.4,-0.3,1.08,GOOD
1790985822905,1030,2036.0,15.9925880345615,-801.0,91.9,98.0,-1.4,-0.3,1.08,GOOD
1790985822905,1031,2031.0,34.18221642558025,-796.0,91.9,98.0,-1.4,-0.3,1.08,GOOD
1790985822905,1032,2041.0,29.658264042600237,-791.0,91.9,98.0,-1.4,-0.3,1.08,GOOD
1790985822905,1033,2025.0,8.37606101948787,-785.0,91.9,98.0,-1.4,-0.3,1.08,GOOD
1790985822905,1034,2031.0,-14.753786672316402,-782.0,91.9,98.0,-1.4,-0.3,1.08,GOOD
1790985822905,1035,2026.0,-28.88237773618163,-774.0,91.9,98.0,-1.4,-0.3,1.08,GOOD
1790985822905,1036,2042.0,-30.142285630177668,-767.0,91.9,98.0,-1.4,-0.3,1.08,GOOD
1790985822905,1037,2036.0,-22.36656591607334,-758.0,91.9,98.0,-1.4,-0.3,1.08,GOOD
1790985822905,1038,2114.0,-10.868250176727912,-748.0,91.9,98.0,-1.4,-0.3,1.08,GOOD
1790985822905,1039,2090.0,4.607416161500693,-742.0,91.9,98.0,-1.4,-0.3,1.08,GOOD
1790985822905,1040,2091.0,23.65291244482301,-731.0,91.9,98.0,-1.4,-0.3,1.08,GOOD
1790985822905,1041,1886.0,32.36986156928973,-718.0,91.9,98.0,-1.4,-0.3,1.08,GOOD
1790985822905,1042,2021.0,13.12782638342587,-705.0,91.9,98.0,-1.4,-0.3,1.08,GOOD
1790985822905,1043,2003.0,-25.168556061654325,-693.0,91.9,98.0,-1.4,-0.3,1.08,GOOD
1790985822905,1044,2014.0,-55.2741442707521,-682.0,91.9,98.0,-1.4,-0.3,1.08,GOOD
1790985822905,1045,2100.0,-61.22658259091571,-666.0,91.9,98.0,-1.4,-0.3,1.08,GOOD
1790985822905,1046,2096.0,-37.940855923349886,-647.0,91.9,98.0,-1.4,-0.3,1.08,GOOD
1790985822905,1047,2105.0,6.574783003723869,-624.0,91.9,98.0,-1.4,-0.3,1.08,GOOD
1790985822905,1048,2031.0,46.309169438099026,-599.0,91.9,98.0,-1.4,-0.3,1.08,GOOD
1790985822905,1049,2020.0,55.522216433380926,-563.0,91.9,98.0,-1.4,-0.3,1.08,GOOD
1790985822905,1050,2025.0,32.290718746759495,-509.0,91.9,98.0,-1.4,-0.3,1.08,GOOD
1790985822907,1051,2032.0,-0.8661928977320901,32000.0,91.9,98.0,-1.4,-0.3,1.08,GOOD
1790985822907,1052,2067.0,-20.109428561448773,32000.0,91.9,98.0,-1.4,-0.3,1.08,GOOD
1790985822907,1053,2064.0,-17.74108464570729,32000.0,91.9,98.0,-1.4,-0.3,1.08,GOOD
1790985822907,1054,2055.0,-2.3040472435356976,32000.0,91.9,98.0,-1.4,-0.3,1.08,GOOD
1790985822907,1055,2039.0,11.933666789942396,32000.0,91.9,98.0,-1.4,-0.3,1.08,GOOD
1790985822907,1056,2052.0,17.366450172137466,32000.0,91.9,98.0,-1.4,-0.3,1.08,GOOD
1790985822907,1057,2054.0,15.931429625037339,32000.0,91.9,98.0,-1.4,-0.3,1.08,GOOD
1790985822907,1058,2038.0,11.757399486058386,32000.0,91.9,98.0,-1.4,-0.3,1.08,GOOD
1790985822907,1059,2042.0,6.204321276717777,32000.0,91.9,98.0,-1.4,-0.3,1.08,GOOD
1790985822907,1060,2038.0,0.9717859362463177,32000.0,91.9,98.0,-1.4,-0.3,1.08,GOOD
1790985822907,1061,2035.0,-1.4693405756860138,32000.0,91.9,98.0,-1.4,-0.3,1.08,GOOD
1790985822907,1062,2038.0,-1.5273958974936943,32000.0,91.9,98.0,-1.4,-0.3,1.08,GOOD
1790985822907,1063,2032.0,-1.790616847747295,32000.0,91.9,98.0,-1.4,-0.3,1.08,GOOD
1790985822907,1064,2008.0,-4.600233318029459,32000.0,91.9,98.0,-1.4,-0.3,1.08,GOOD
1790985822907,1065,2003.0,-11.022181572571125,32000.0,91.9,98.0,-1.4,-0.3,1.08,GOOD
1790985822907,1066,2427.0,-2.8850840114186336,32000.0,91.9,98.0,-1.4,-0.3,1.08,GOOD
1790985822907,1067,2484.0,62.144910716708814,32000.0,91.9,98.0,-1.4,-0.3,1.08,GOOD
1790985822907,1068,2509.0,193.20166215237967,32000.0,91.9,98.0,-1.4,-0.3,1.08,GOOD
1790985822907,1069,2527.0,340.3677171423729,32000.0,91.9,98.0,-1.4,-0.3,1.08,GOOD
1790985822907,1070,2666.0,456.6405697150762,32000.0,91.9,98.0,-1.4,-0.3,1.08,GOOD
1790985822907,1071,2659.0,533.3424771386516,32000.0,91.9,98.0,-1.4,-0.3,1.08,GOOD
1790985822907,1072,2654.0,573.0755932938705,32000.0,91.9,98.0,-1.4,-0.3,1.08,GOOD
1790985822907,1073,2646.0,577.9218070161578,32000.0,91.9,98.0,-1.4,-0.3,1.08,GOOD
1790985822907,1074,1958.0,536.2410164230187,32000.0,91.9,98.0,-1.4,-0.3,1.08,GOOD
1790985822907,1075,1948.0,408.16446419196205,32000.0,91.9,98.0,-1.4,-0.3,1.08,GOOD
1790985822908,1076,1904.0,193.25089705649765,32000.0,91.9,98.0,-1.4,-0.3,1.08,GOOD
1790985822908,1077,1879.0,-36.35984385736161,32000.0,91.9,98.0,-1.4,-0.3,1.08,GOOD
1790985822908,1078,1909.0,-207.86831751526324,32000.0,91.9,98.0,-1.4,-0.3,1.08,GOOD
1790985822908,1079,2061.0,-279.4348116138085,32000.0,91.9,98.0,-1.4,-0.3,1.08,GOOD
1790985822908,1080,2062.0,-238.904307198481,32000.0,91.9,98.0,-1.4,-0.3,1.08,GOOD
1790985822908,1081,2050.0,-129.62423694768916,32000.0,91.9,98.0,-1.4,-0.3,1.08,GOOD
1790985822908,1082,2055.0,-33.29351379586252,32000.0,91.9,98.0,-1.4,-0.3,1.08,GOOD
1790985822908,1083,2074.0,1.0460041567634617,32000.0,91.9,98.0,-1.4,-0.3,1.08,GOOD
1790985822908,1084,2096.0,-9.280890571891376,32000.0,91.9,98.0,-1.4,-0.3,1.08,GOOD
1790985822908,1085,2063.0,-20.146592791742687,32000.0,91.9,98.0,-1.4,-0.3,1.08,GOOD
1790985822908,1086,2011.0,-16.66598224945157,32000.0,91.9,98.0,-1.4,-0.3,1.08,GOOD
1790985822908,1087,2015.0,-19.04096508412585,32000.0,91.9,98.0,-1.4,-0.3,1.08,GOOD
1790985822908,1088,2024.0,-41.58684292390139,32000.0,91.9,98.0,-1.4,-0.3,1.08,GOOD
1790985822908,1089,2108.0,-66.48642724421089,32000.0,91.9,98.0,-1.4,-0.3,1.08,GOOD
1790985822908,1090,2116.0,-63.23074032034761,32000.0,91.9,98.0,-1.4,-0.3,1.08,GOOD
1790985822908,1091,2082.0,-28.256515401084958,32000.0,91.9,98.0,-1.4,-0.3,1.08,GOOD
1790985822908,1092,2059.0,7.519306842919944,32000.0,91.9,98.0,-1.4,-0.3,1.08,GOOD
1790985822908,1093,2092.0,16.95231440596486,32000.0,91.9,98.0,-1.4,-0.3,1.08,GOOD
1790985822908,1094,2102.0,6.102918247043595,32000.0,91.9,98.0,-1.4,-0.3,1.08,GOOD
1790985822908,1095,2101.0,-2.2923285077818565,32000.0,91.9,98.0,-1.4,-0.3,1.08,GOOD
1790985822908,1096,2181.0,4.8841250920558785,32000.0,91.9,98.0,-1.4,-0.3,1.08,GOOD
1790985822908,1097,2177.0,27.455170263835157,32000.0,91.9,98.0,-1.4,-0.3,1.08,GOOD
1790985822908,1098,2197.0,56.44485258901558,32000.0,91.9,98.0,-1.4,-0.3,1.08,GOOD
1790985822908,1099,2215.0,82.45099219601207,32000.0,91.9,98.0,-1.4,-0.3,1.08,GOOD
1790985822908,1100,2121.0,99.8050934452402,32000.0,91.9,98.0,-1.4,-0.3,1.08,GOOD
1790985823079,1101,2091.0,98.75579644903678,32000.0,91.9,98.0,-1.5,-0.4,1.09,GOOD
1790985823079,1102,2081.0,72.48463817647068,32000.0,91.9,98.0,-1.5,-0.4,1.09,GOOD
1790985823079,1103,2069.0,30.38542732188377,32000.0,91.9,98.0,-1.5,-0.4,1.09,GOOD
1790985823079,1104,2104.0,-7.978801807908106,32000.0,91.9,98.0,-1.5,-0.4,1.09,GOOD
1790985823079,1105,2104.0,-25.914945083082888,32000.0,91.9,98.0,-1.5,-0.4,1.09,GOOD
1790985823079,1106,2094.0,-20.660893601300835,32000.0,91.9,98.0,-1.5,-0.4,1.09,GOOD
1790985823079,1107,2190.0,-1.140961804152755,32000.0,91.9,98.0,-1.5,-0.4,1.09,GOOD
1790985823079,1108,2191.0,26.222629295017406,32000.0,91.9,98.0,-1.5,-0.4,1.09,GOOD
1790985823079,1109,2215.0,57.238061077816766,32000.0,91.9,98.0,-1.5,-0.4,1.09,GOOD
1790985823079,1110,2234.0,86.17597797707884,32000.0,91.9,98.0,-1.5,-0.4,1.09,GOOD
1790985823079,1111,2219.0,109.92603221306264,32000.0,91.9,98.0,-1.5,-0.4,1.09,GOOD
1790985823079,1112,2190.0,124.31935587093662,32000.0,91.9,98.0,-1.5,-0.4,1.09,GOOD
1790985823079,1113,2180.0,122.80916872957418,32000.0,91.9,98.0,-1.5,-0.4,1.09,GOOD
1790985823079,1114,2440.0,115.90356894870439,32000.0,91.9,98.0,-1.5,-0.4,1.09,GOOD
1790985823079,1115,2449.0,136.9947947598717,32000.0,91.9,98.0,-1.5,-0.4,1.09,GOOD
1790985823079,1116,2445.0,199.53538168076636,32000.0,91.9,98.0,-1.5,-0.4,1.09,GOOD
1790985823079,1117,2435.0,274.6682586702052,32000.0,91.9,98.0,-1.5,-0.4,1.09,GOOD
1790985823079,1118,2381.0,325.3871088750172,32000.0,91.9,98.0,-1.5,-0.4,1.09,GOOD
1790985823079,1119,2387.0,333.2361173003794,32000.0,91.9,98.0,-1.5,-0.4,1.09,GOOD
1790985823079,1120,2384.0,303.29154161860055,32000.0,91.9,98.0,-1.5,-0.4,1.09,GOOD
1790985823079,1121,2332.0,257.4262189676931,32000.0,91.9,98.0,-1.5,-0.4,1.09,GOOD
1790985823079,1122,2327.0,216.69243007084276,32000.0,91.9,98.0,-1.5,-0.4,1.09,GOOD
1790985823079,1123,2325.0,191.65158997762336,32000.0,91.9,98.0,-1.5,-0.4,1.09,GOOD
1790985823079,1124,2217.0,176.33979677048893,32000.0,91.9,98.0,-1.5,-0.4,1.09,GOOD
1790985823079,1125,2270.0,152.90107206410363,32000.0,91.9,98.0,-1.5,-0.4,1.09,GOOD
1790985823160,1126,2245.0,118.2486130358643,32000.0,91.9,98.0,-1.3,-0.6,1.07,GOOD
1790985823160,1127,2243.0,88.73457798934119,32000.0,91.9,98.0,-1.3,-0.6,1.07,GOOD
1790985823160,1128,2240.0,75.77474250069221,32000.0,91.9,98.0,-1.3,-0.6,1.07,GOOD
1790985823160,1129,2037.0,67.53540291362039,32000.0,91.9,98.0,-1.3,-0.6,1.07,GOOD
1790985823160,1130,2058.0,35.65000104182411,32000.0,91.9,98.0,-1.3,-0.6,1.07,GOOD
1790985823160,1131,2037.0,-26.43119568757188,32000.0,91.9,98.0,-1.3,-0.6,1.07,GOOD
1790985823160,1132,2011.0,-92.38054364352173,32000.0,91.9,98.0,-1.3,-0.6,1.07,GOOD
1790985823160,1133,2010.0,-137.92685671892355,32000.0,91.9,98.0,-1.3,-0.6,1.07,GOOD
1790985823160,1134,2030.0,-157.26386262614676,32000.0,91.9,98.0,-1.3,-0.6,1.07,GOOD
1790985823160,1135,2021.0,-156.02550524945758,32000.0,91.9,98.0,-1.3,-0.6,1.07,GOOD
1790985823160,1136,1847.0,-152.6256125247999,32000.0,91.9,98.0,-1.3,-0.6,1.07,GOOD
1790985823160,1137,1846.0,-172.42967126810026,32000.0,91.9,98.0,-1.3,-0.6,1.07,GOOD
1790985823160,1138,1843.0,-219.2178671865938,32000.0,91.9,98.0,-1.3,-0.6,1.07,GOOD
1790985823160,1139,2013.0,-263.2985705133619,32000.0,91.9,98.0,-1.3,-0.6,1.07,GOOD
1790985823160,1140,2008.0,-269.43976813490156,32000.0,91.9,98.0,-1.3,-0.6,1.07,GOOD
1790985823160,1141,1994.0,-232.745477678871,32000.0,91.9,98.0,-1.3,-0.6,1.07,GOOD
1790985823160,1142,1979.0,-179.56686474568465,32000.0,91.9,98.0,-1.3,-0.6,1.07,GOOD
1790985823160,1143,1978.0,-137.6582634367589,32000.0,91.9,98.0,-1.3,-0.6,1.07,GOOD
1790985823160,1144,1965.0,-120.90434181612062,32000.0,91.9,98.0,-1.3,-0.6,1.07,GOOD
1790985823160,1145,1948.0,-131.3153144142343,32000.0,91.9,98.0,-1.3,-0.6,1.07,GOOD
1790985823160,1146,1949.0,-157.92402810029722,32000.0,91.9,98.0,-1.3,-0.6,1.07,GOOD
1790985823160,1147,1798.0,-186.01416418520546,32000.0,91.9,98.0,-1.3,-0.6,1.07,GOOD
1790985823160,1148,1915.0,-210.1757886770436,32000.0,91.9,98.0,-1.3,-0.6,1.07,GOOD
1790985823160,1149,1910.0,-226.04971701400007,32000.0,91.9,98.0,-1.3,-0.6,1.07,GOOD
1790985823160,1150,1975.0,-227.22248274789678,32000.0,91.9,98.0,-1.3,-0.6,1.07,GOOD
1790985823273,1151,1980.0,-212.124471878385,32000.0,91.9,98.0,-1.2,-0.5,1.09,GOOD
1790985823273,1152,1997.0,-181.08120532540957,32000.0,91.9,98.0,-1.2,-0.5,1.09,GOOD
1790985823273,1153,1987.0,-139.8796175935081,32000.0,91.9,98.0,-1.2,-0.5,1.09,GOOD
1790985823273,1154,2010.0,-104.10499620620404,32000.0,91.9,98.0,-1.2,-0.5,1.09,GOOD
1790985823273,1155,2002.0,-88.3524904978329,32000.0,91.9,98.0,-1.2,-0.5,1.09,GOOD
1790985823273,1156,2013.0,-92.05680089617087,32000.0,91.9,98.0,-1.2,-0.5,1.09,GOOD
1790985823273,1157,2019.0,-98.94208163676237,32000.0,91.9,98.0,-1.2,-0.5,1.09,GOOD
1790985823273,1158,1918.0,-97.810195914847,32000.0,91.9,98.0,-1.2,-0.5,1.09,GOOD
1790985823273,1159,1926.0,-99.62340956467102,32000.0,91.9,98.0,-1.2,-0.5,1.09,GOOD
1790985823273,1160,1920.0,-118.77067511267342,32000.0,91.9,98.0,-1.2,-0.5,1.09,GOOD
1790985823273,1161,2005.0,-146.43015982581676,32000.0,91.9,98.0,-1.2,-0.5,1.09,GOOD
1790985823273,1162,1999.0,-156.98469351132627,32000.0,91.9,98.0,-1.2,-0.5,1.09,GOOD
1790985823273,1163,2004.0,-137.52706964785688,32000.0,91.9,98.0,-1.2,-0.5,1.09,GOOD
1790985823273,1164,1985.0,-102.26710401568975,32000.0,91.9,98.0,-1.2,-0.5,1.09,GOOD
1790985823273,1165,1927.0,-78.64660094861733,32000.0,91.9,98.0,-1.2,-0.5,1.09,GOOD
1790985823273,1166,1939.0,-83.96756714721916,32000.0,91.9,98.0,-1.2,-0.5,1.09,GOOD
1790985823273,1167,1951.0,-109.71672187034437,32000.0,91.9,98.0,-1.2,-0.5,1.09,GOOD
1790985823273,1168,2025.0,-128.7510182421349,32000.0,91.9,98.0,-1.2,-0.5,1.09,GOOD
1790985823273,1169,2026.0,-120.99865743940235,32000.0,91.9,98.0,-1.2,-0.5,1.09,GOOD
1790985823273,1170,2020.0,-91.28078707935333,32000.0,91.9,98.0,-1.2,-0.5,1.09,GOOD
1790985823273,1171,2026.0,-60.171704622097224,32000.0,91.9,98.0,-1.2,-0.5,1.09,GOOD
1790985823273,1172,2032.0,-40.70287284846109,32000.0,91.9,98.0,-1.2,-0.5,1.09,GOOD
1790985823273,1173,2024.0,-32.48625838783066,32000.0,91.9,98.0,-1.2,-0.5,1.09,GOOD
1790985823273,1174,2025.0,-31.610560798449594,32000.0,91.9,98.0,-1.2,-0.5,1.09,GOOD
1790985823273,1175,2011.0,-35.65731120865743,32000.0,91.9,98.0,-1.2,-0.5,1.09,GOOD
1790985823467,1176,1918.0,-46.0217671584343,32000.0,91.1,98.0,-1.3,-0.4,1.08,GOOD
1790985823467,1177,2015.0,-63.72393534358884,32000.0,91.1,98.0,-1.3,-0.4,1.08,GOOD
1790985823467,1178,2021.0,-77.67521225392503,32000.0,91.1,98.0,-1.3,-0.4,1.08,GOOD
1790985823467,1179,1924.0,-79.39585516004075,32000.0,91.1,98.0,-1.3,-0.4,1.08,GOOD
1790985823467,1180,1913.0,-81.75892768308866,32000.0,91.1,98.0,-1.3,-0.4,1.08,GOOD
1790985823467,1181,1897.0,-97.03340973590433,32000.0,91.1,98.0,-1.3,-0.4,1.08,GOOD
1790985823467,1182,1895.0,-119.77416276082383,32000.0,91.1,98.0,-1.3,-0.4,1.08,GOOD
1790985823467,1183,2005.0,-136.1590447047684,32000.0,91.1,98.0,-1.3,-0.4,1.08,GOOD
1790985823467,1184,2008.0,-131.86239795398853,32000.0,91.1,98.0,-1.3,-0.4,1.08,GOOD
1790985823467,1185,1891.0,-108.48113649064017,32000.0,91.1,98.0,-1.3,-0.4,1.08,GOOD
1790985823467,1186,1951.0,-87.0427876881705,32000.0,91.1,98.0,-1.3,-0.4,1.08,GOOD
1790985823467,1187,2038.0,-75.74079901908962,32000.0,91.1,98.0,-1.3,-0.4,1.08,GOOD
1790985823467,1188,2020.0,-63.278410652463684,32000.0,91.1,98.0,-1.3,-0.4,1.08,GOOD
1790985823467,1189,2036.0,-46.48045213398317,32000.0,91.1,98.0,-1.3,-0.4,1.08,GOOD
1790985823467,1190,2033.0,-29.962797195981537,32000.0,91.1,98.0,-1.3,-0.4,1.08,GOOD
1790985823467,1191,1956.0,-15.872571062498862,32000.0,91.1,98.0,-1.3,-0.4,1.08,GOOD
1790985823467,1192,1949.0,-12.437623212985551,32000.0,91.1,98.0,-1.3,-0.4,1.08,GOOD
1790985823467,1193,1941.0,-29.27240314339857,32000.0,91.1,98.0,-1.3,-0.4,1.08,GOOD
1790985823467,1194,1944.0,-61.8470583140136,32000.0,91.1,98.0,-1.3,-0.4,1.08,GOOD
1790985823467,1195,2058.0,-87.63060114379559,32000.0,91.1,98.0,-1.3,-0.4,1.08,GOOD
1790985823467,1196,2070.0,-79.17387783841733,32000.0,91.1,98.0,-1.3,-0.4,1.08,GOOD
1790985823467,1197,2061.0,-34.25747175895411,32000.0,91.1,98.0,-1.3,-0.4,1.08,GOOD
1790985823467,1198,2045.0,16.372870154464433,32000.0,91.1,98.0,-1.3,-0.4,1.08,GOOD
1790985823467,1199,2005.0,40.79418531657976,32000.0,91.1,98.0,-1.3,-0.4,1.08,GOOD
1790985823467,1200,2097.0,36.062116005647496,32000.0,91.1,98.0,-1.3,-0.4,1.08,GOOD
1790985823468,1201,2100.0,26.8414538026866,32000.0,91.1,98.0,-1.3,-0.4,1.08,GOOD
1790985823468,1202,2095.0,33.193442568739,32000.0,91.1,98.0,-1.3,-0.4,1.08,GOOD
1790985823468,1203,2009.0,46.69759997076021,32000.0,91.1,98.0,-1.3,-0.4,1.08,GOOD
1790985823468,1204,2013.0,46.46464182054153,32000.0,91.1,98.0,-1.3,-0.4,1.08,GOOD
1790985823468,1205,2009.0,27.589883685807223,32000.0,91.1,98.0,-1.3,-0.4,1.08,GOOD
1790985823468,1206,1995.0,2.1633871835076413,32000.0,91.1,98.0,-1.3,-0.4,1.08,GOOD
1790985823468,1207,2120.0,-14.364925728174509,32000.0,91.1,98.0,-1.3,-0.4,1.08,GOOD
1790985823468,1208,2121.0,-7.341134363931552,32000.0,91.1,98.0,-1.3,-0.4,1.08,GOOD
1790985823468,1209,2134.0,25.854572979366374,32000.0,91.1,98.0,-1.3,-0.4,1.08,GOOD
1790985823468,1210,2096.0,68.00288777868805,32000.0,91.1,98.0,-1.3,-0.4,1.08,GOOD
1790985823468,1211,2096.0,96.59619467859588,32000.0,91.1,98.0,-1.3,-0.4,1.08,GOOD
1790985823468,1212,2086.0,100.43868977634742,32000.0,91.1,98.0,-1.3,-0.4,1.08,GOOD
1790985823468,1213,2088.0,84.08792877409245,32000.0,91.1,98.0,-1.3,-0.4,1.08,GOOD
1790985823468,1214,2078.0,61.72548607203893,32000.0,91.1,98.0,-1.3,-0.4,1.08,GOOD
1790985823468,1215,2093.0,47.16261454989916,32000.0,91.1,98.0,-1.3,-0.4,1.08,GOOD
1790985823468,1216,2074.0,45.23305777691061,32000.0,91.1,98.0,-1.3,-0.4,1.08,GOOD
1790985823468,1217,2042.0,47.7916789284888,32000.0,91.1,98.0,-1.3,-0.4,1.08,GOOD
1790985823468,1218,2039.0,42.29098423932025,32000.0,91.1,98.0,-1.3,-0.4,1.08,GOOD
1790985823468,1219,2030.0,26.70961043373598,32000.0,91.1,98.0,-1.3,-0.4,1.08,GOOD
1790985823468,1220,2034.0,10.104481401796077,32000.0,91.1,98.0,-1.3,-0.4,1.08,GOOD
1790985823468,1221,2063.0,1.6589333302073732,32000.0,91.1,98.0,-1.3,-0.4,1.08,GOOD
1790985823468,1222,2051.0,3.6713472235516726,32000.0,91.1,98.0,-1.3,-0.4,1.08,GOOD
1790985823468,1223,2046.0,10.695110139713462,32000.0,91.1,98.0,-1.3,-0.4,1.08,GOOD
1790985823468,1224,2055.0,16.407035009507414,32000.0,91.1,98.0,-1.3,-0.4,1.08,GOOD
1790985823468,1225,2033.0,19.42529285917675,32000.0,91.1,98.0,-1.3,-0.4,1.08,GOOD
1790985823693,1226,2035.0,19.164333488135075,32000.0,91.1,98.0,-1.4,-0.3,1.08,GOOD
1790985823693,1227,2019.0,13.66420903376062,32000.0,91.1,98.0,-1.4,-0.3,1.08,GOOD
1790985823693,1228,2021.0,3.467650834454882,32000.0,91.1,98.0,-1.4,-0.3,1.08,GOOD
1790985823693,1229,2043.0,-5.892625256945588,32000.0,91.1,98.0,-1.4,-0.3,1.08,GOOD
1790985823693,1230,1993.0,-9.268362878805343,32000.0,91.1,98.0,-1.4,-0.3,1.08,GOOD
1790985823693,1231,2130.0,-5.093083068032482,32000.0,91.1,98.0,-1.4,-0.3,1.08,GOOD
1790985823693,1232,2191.0,14.182150813228716,32000.0,91.1,98.0,-1.4,-0.3,1.08,GOOD
1790985823693,1233,2711.0,75.62914557858052,32000.0,91.1,98.0,-1.4,-0.3,1.08,GOOD
1790985823693,1234,2607.0,209.2220144086448,32000.0,91.1,98.0,-1.4,-0.3,1.08,GOOD
1790985823693,1235,2631.0,389.44124240613615,32000.0,91.1,98.0,-1.4,-0.3,1.08,GOOD
1790985823693,1236,2607.0,541.0009529251057,32000.0,91.1,98.0,-1.4,-0.3,1.08,GOOD
1790985823693,1237,2212.0,600.3285173108495,32000.0,91.1,98.0,-1.4,-0.3,1.08,GOOD
1790985823693,1238,2152.0,532.2535957046393,32000.0,91.1,98.0,-1.4,-0.3,1.08,GOOD
1790985823693,1239,2054.0,355.21727889896056,32000.0,91.1,98.0,-1.4,-0.3,1.08,GOOD
1790985823693,1240,2002.0,146.90838806891787,32000.0,91.1,98.0,-1.4,-0.3,1.08,GOOD
1790985823693,1241,2019.0,-15.114583295821518,32000.0,91.1,98.0,-1.4,-0.3,1.08,GOOD
1790985823693,1242,2017.0,-95.40302908408871,32000.0,91.1,98.0,-1.4,-0.3,1.08,GOOD
1790985823693,1243,2013.0,-104.66639263233812,32000.0,91.1,98.0,-1.4,-0.3,1.08,GOOD
1790985823693,1244,2094.0,-78.43158846629895,32000.0,91.1,98.0,-1.4,-0.3,1.08,GOOD
1790985823693,1245,2105.0,-43.218774746208986,32000.0,91.1,98.0,-1.4,-0.3,1.08,GOOD
1790985823693,1246,2101.0,-9.167940050095318,32000.0,91.1,98.0,-1.4,-0.3,1.08,GOOD
1790985823693,1247,2052.0,16.352464453104375,32000.0,91.1,98.0,-1.4,-0.3,1.08,GOOD
1790985823693,1248,1961.0,21.53332219002096,32000.0,91.1,98.0,-1.4,-0.3,1.08,GOOD
1790985823693,1249,2034.0,-0.5248592482829189,32000.0,91.1,98.0,-1.4,-0.3,1.08,GOOD
1790985823693,1250,2036.0,-35.950339799144245,32000.0,91.1,98.0,-1.4,-0.3,1.08,GOOD
1790985823694,1251,1997.0,-62.29470739442697,32000.0,91.1,98.0,-1.4,-0.3,1.08,GOOD
1790985823694,1252,1986.0,-72.76097717205806,32000.0,91.1,98.0,-1.4,-0.3,1.08,GOOD
1790985823694,1253,1958.0,-74.06741143792325,32000.0,91.1,98.0,-1.4,-0.3,1.08,GOOD
1790985823694,1254,1955.0,-76.0908409673371,32000.0,91.1,98.0,-1.4,-0.3,1.08,GOOD
1790985823694,1255,2112.0,-79.98430578312626,32000.0,91.1,98.0,-1.4,-0.3,1.08,GOOD
1790985823694,1256,2111.0,-70.2726426743586,32000.0,91.1,98.0,-1.4,-0.3,1.08,GOOD
1790985823694,1257,2123.0,-35.97284410036771,32000.0,91.1,98.0,-1.4,-0.3,1.08,GOOD
1790985823694,1258,2123.0,12.469807262924753,32000.0,91.1,98.0,-1.4,-0.3,1.08,GOOD
1790985823694,1259,2116.0,55.14176850641208,32000.0,91.1,98.0,-1.4,-0.3,1.08,GOOD
1790985823694,1260,2098.0,75.02531686571129,32000.0,91.1,98.0,-1.4,-0.3,1.08,GOOD
1790985823694,1261,2091.0,66.37548024716169,32000.0,91.1,98.0,-1.4,-0.3,1.08,GOOD
1790985823694,1262,2130.0,42.799724149098545,32000.0,91.1,98.0,-1.4,-0.3,1.08,GOOD
1790985823694,1263,2092.0,27.333173564818633,32000.0,91.1,98.0,-1.4,-0.3,1.08,GOOD
1790985823694,1264,2071.0,26.985199384835727,32000.0,91.1,98.0,-1.4,-0.3,1.08,GOOD
1790985823694,1265,2184.0,32.843228228716725,32000.0,91.1,98.0,-1.4,-0.3,1.08,GOOD
1790985823694,1266,2189.0,43.46760322972413,32000.0,91.1,98.0,-1.4,-0.3,1.08,GOOD
1790985823694,1267,2202.0,63.53056156945301,32000.0,91.1,98.0,-1.4,-0.3,1.08,GOOD
1790985823694,1268,2206.0,91.09592608102027,32000.0,91.1,98.0,-1.4,-0.3,1.08,GOOD
1790985823694,1269,2211.0,119.39238046022236,32000.0,91.1,98.0,-1.4,-0.3,1.08,GOOD
1790985823694,1270,2216.0,139.40793478430652,32000.0,91.1,98.0,-1.4,-0.3,1.08,GOOD
1790985823694,1271,2220.0,144.11630787386113,32000.0,91.1,98.0,-1.4,-0.3,1.08,GOOD
1790985823694,1272,2282.0,138.79309949460293,32000.0,91.1,98.0,-1.4,-0.3,1.08,GOOD
1790985823694,1273,2247.0,139.1564553047303,32000.0,91.1,98.0,-1.4,-0.3,1.08,GOOD
1790985823694,1274,2154.0,147.5749908225426,32000.0,91.1,98.0,-1.4,-0.3,1.08,GOOD
1790985823694,1275,2149.0,145.0059628588604,32000.0,91.1,98.0,-1.4,-0.3,1.08,GOOD
1790985823772,1276,2259.0,123.1851291699364,32000.0,91.1,98.0,-1.3,-0.3,1.09,GOOD
1790985823772,1277,2275.0,103.09257915507858,32000.0,91.1,98.0,-1.3,-0.3,1.09,GOOD
1790985823772,1278,2274.0,106.46954549488072,32000.0,91.1,98.0,-1.3,-0.3,1.09,GOOD
1790985823772,1279,2284.0,132.15998826562105,32000.0,91.1,98.0,-1.3,-0.3,1.09,GOOD
1790985823772,1280,2266.0,164.03450062617327,32000.0,91.1,98.0,-1.3,-0.3,1.09,GOOD
1790985823772,1281,2375.0,187.7964739620109,32000.0,91.1,98.0,-1.3,-0.3,1.09,GOOD
1790985823772,1282,2372.0,202.89777269299088,32000.0,91.1,98.0,-1.3,-0.3,1.09,GOOD
1790985823772,1283,2406.0,217.75200166837539,32000.0,91.1,98.0,-1.3,-0.3,1.09,GOOD
1790985823772,1284,2412.0,238.71845681995404,32000.0,91.1,98.0,-1.3,-0.3,1.09,GOOD
1790985823772,1285,2410.0,265.16996173116127,32000.0,91.1,98.0,-1.3,-0.3,1.09,GOOD
1790985823772,1286,2393.0,285.78063984773604,32000.0,91.1,98.0,-1.3,-0.3,1.09,GOOD
1790985823772,1287,2184.0,278.64830598626185,32000.0,91.1,98.0,-1.3,-0.3,1.09,GOOD
1790985823772,1288,2193.0,226.35671376801918,32000.0,91.1,98.0,-1.3,-0.3,1.09,GOOD
1790985823772,1289,2192.0,144.5401633481432,32000.0,91.1,98.0,-1.3,-0.3,1.09,GOOD
1790985823772,1290,2178.0,72.92002174490618,32000.0,91.1,98.0,-1.3,-0.3,1.09,GOOD
1790985823772,1291,2181.0,31.925983450022393,32000.0,91.1,98.0,-1.3,-0.3,1.09,GOOD
1790985823772,1292,2192.0,16.17754647928349,32000.0,91.1,98.0,-1.3,-0.3,1.09,GOOD
1790985823772,1293,2191.0,16.687873533110164,32000.0,91.1,98.0,-1.3,-0.3,1.09,GOOD
1790985823772,1294,2112.0,24.48914970514105,32000.0,91.1,98.0,-1.3,-0.3,1.09,GOOD
1790985823772,1295,2086.0,23.834165104744002,32000.0,91.1,98.0,-1.3,-0.3,1.09,GOOD
1790985823772,1296,2086.0,2.7068482040014503,32000.0,91.1,98.0,-1.3,-0.3,1.09,GOOD
1790985823772,1297,2071.0,-33.47769026844132,32000.0,91.1,98.0,-1.3,-0.3,1.09,GOOD
1790985823772,1298,1902.0,-74.85833088875481,32000.0,91.1,98.0,-1.3,-0.3,1.09,GOOD
1790985823772,1299,1893.0,-122.71277055475,32000.0,91.1,98.0,-1.3,-0.3,1.09,GOOD
1790985823772,1300,1884.0,-175.9681937327507,32000.0,91.1,98.0,-1.3,-0.3,1.09,GOOD
1790985823992,1301,1963.0,-220.0603400593514,32000.0,91.1,98.0,-1.3,-0.3,1.08,GOOD
1790985823992,1302,1966.0,-239.56697579074105,32000.0,91.1,98.0,-1.3,-0.3,1.08,GOOD
1790985823992,1303,1977.0,-230.7075219164188,32000.0,91.1,98.0,-1.3,-0.3,1.08,GOOD
1790985823992,1304,1972.0,-201.3335438073638,32000.0,91.1,98.0,-1.3,-0.3,1.08,GOOD
1790985823992,1305,1880.0,-169.5745470334503,32000.0,91.1,98.0,-1.3,-0.3,1.08,GOOD
1790985823992,1306,1883.0,-160.18300578840635,32000.0,91.1,98.0,-1.3,-0.3,1.08,GOOD
1790985823992,1307,1819.0,-185.7791049457628,32000.0,91.1,98.0,-1.3,-0.3,1.08,GOOD
1790985823992,1308,1866.0,-232.6255740286598,32000.0,91.1,98.0,-1.3,-0.3,1.08,GOOD
1790985823992,1309,2034.0,-263.6274690023429,32000.0,91.1,98.0,-1.3,-0.3,1.08,GOOD
1790985823992,1310,2017.0,-243.87427399837668,32000.0,91.1,98.0,-1.3,-0.3,1.08,GOOD
1790985823992,1311,2017.0,-180.70351619839485,32000.0,91.1,98.0,-1.3,-0.3,1.08,GOOD
1790985823992,1312,2025.0,-115.75191463283633,32000.0,91.1,98.0,-1.3,-0.3,1.08,GOOD
1790985823992,1313,1978.0,-78.92564005874638,32000.0,91.1,98.0,-1.3,-0.3,1.08,GOOD
1790985823992,1314,1996.0,-73.55116028790698,32000.0,91.1,98.0,-1.3,-0.3,1.08,GOOD
1790985823992,1315,1969.0,-87.99010677186655,32000.0,91.1,98.0,-1.3,-0.3,1.08,GOOD
1790985823992,1316,1507.0,-126.92370668358882,32000.0,91.1,98.0,-1.3,-0.3,1.08,GOOD
1790985823992,1317,1521.0,-221.27621612166115,32000.0,91.1,98.0,-1.3,-0.3,1.08,GOOD
1790985823992,1318,1507.0,-366.15881848552556,32000.0,91.1,98.0,-1.3,-0.3,1.08,GOOD
1790985823992,1319,1849.0,-489.503819376841,32000.0,91.1,98.0,-1.3,-0.3,1.08,GOOD
1790985823992,1320,1862.0,-515.3740296296359,32000.0,91.1,98.0,-1.3,-0.3,1.08,GOOD
1790985823992,1321,1913.0,-433.9303895593049,32000.0,91.1,98.0,-1.3,-0.3,1.08,GOOD
1790985823992,1322,1960.0,-296.4511910391378,32000.0,91.1,98.0,-1.3,-0.3,1.08,GOOD
1790985823992,1323,2023.0,-159.6224115310051,32000.0,91.1,98.0,-1.3,-0.3,1.08,GOOD
1790985823992,1324,1882.0,-66.3684845519725,32000.0,91.1,98.0,-1.3,-0.3,1.08,GOOD
1790985823992,1325,1910.0,-46.37151593484306,32000.0,91.1,98.0,-1.3,-0.3,1.08,GOOD
1790985824081,1326,1932.0,-86.26821028301777,32000.0,91.1,98.0,-1.2,-0.3,1.08,GOOD
1790985824081,1327,2011.0,-128.2542432277613,32000.0,91.1,98.0,-1.2,-0.3,1.08,GOOD
1790985824081,1328,2009.0,-126.67026222933966,32000.0,91.1,98.0,-1.2,-0.3,1.08,GOOD
1790985824081,1329,1987.0,-89.45807679626438,32000.0,91.1,98.0,-1.2,-0.3,1.08,GOOD
1790985824081,1330,2070.0,-52.074910020852876,32000.0,91.1,98.0,-1.2,-0.3,1.08,GOOD
1790985824081,1331,2061.0,-27.895800643913738,32000.0,91.1,98.0,-1.2,-0.3,1.08,GOOD
1790985824081,1332,2011.0,-9.1025811697591,32000.0,91.1,98.0,-1.2,-0.3,1.08,GOOD
1790985824081,1333,1988.0,3.0584094814006373,32000.0,91.1,98.0,-1.2,-0.3,1.08,GOOD
1790985824081,1334,2063.0,1.5663994051916355,32000.0,91.1,98.0,-1.2,-0.3,1.08,GOOD
1790985824081,1335,1962.0,-11.896205476842363,32000.0,91.1,98.0,-1.2,-0.3,1.08,GOOD
1790985824081,1336,1955.0,-33.46588382718283,32000.0,91.1,98.0,-1.2,-0.3,1.08,GOOD
1790985824081,1337,2056.0,-53.019190188096374,32000.0,91.1,98.0,-1.2,-0.3,1.08,GOOD
1790985824081,1338,2057.0,-50.96741257045527,32000.0,91.1,98.0,-1.2,-0.3,1.08,GOOD
1790985824081,1339,2040.0,-26.291215775942238,32000.0,91.1,98.0,-1.2,-0.3,1.08,GOOD
1790985824081,1340,2029.0,-2.40283349155819,32000.0,91.1,98.0,-1.2,-0.3,1.08,GOOD
1790985824081,1341,1876.0,-0.44750133793842295,32000.0,91.1,98.0,-1.2,-0.3,1.08,GOOD
1790985824081,1342,1869.0,-28.049309442211005,32000.0,91.1,98.0,-1.2,-0.3,1.08,GOOD
1790985824081,1343,1788.0,-80.13291807464016,32000.0,91.1,98.0,-1.2,-0.3,1.08,GOOD
1790985824081,1344,1812.0,-143.56508784418057,32000.0,91.1,98.0,-1.2,-0.3,1.08,GOOD
1790985824081,1345,2004.0,-193.85570647824454,32000.0,91.1,98.0,-1.2,-0.3,1.08,GOOD
1790985824081,1346,2018.0,-195.199507631468,32000.0,91.1,98.0,-1.2,-0.3,1.08,GOOD
1790985824081,1347,2042.0,-136.42361754710117,32000.0,91.1,98.0,-1.2,-0.3,1.08,GOOD
1790985824081,1348,2041.0,-49.69362650390839,32000.0,91.1,98.0,-1.2,-0.3,1.08,GOOD
1790985824081,1349,1989.0,18.725113242948492,32000.0,91.1,98.0,-1.2,-0.3,1.08,GOOD
1790985824081,1350,1958.0,38.75359131699962,32000.0,91.1,98.0,-1.2,-0.3,1.08,GOOD
1790985824605,1351,1949.0,11.955468139438182,22335.0,88.0,98.0,-1.3,-0.2,1.08,GOOD
1790985824605,1352,1760.0,-40.09233191918688,22253.0,88.0,98.0,-1.3,-0.2,1.08,GOOD
1790985824605,1353,1771.0,-103.51718495573252,22172.0,88.0,98.0,-1.3,-0.2,1.08,GOOD
1790985824605,1354,1772.0,-168.57435368014703,22085.0,88.0,98.0,-1.3,-0.2,1.08,GOOD
1790985824605,1355,1766.0,-219.94949786160748,22003.0,88.0,98.0,-1.3,-0.2,1.08,GOOD
1790985824605,1356,2049.0,-237.67130831750754,21918.0,88.0,98.0,-1.3,-0.2,1.08,GOOD
1790985824605,1357,2102.0,-194.8143797895324,21829.0,88.0,98.0,-1.3,-0.2,1.08,GOOD
1790985824605,1358,2120.0,-89.12588949965256,21748.0,88.0,98.0,-1.3,-0.2,1.08,GOOD
1790985824605,1359,2117.0,34.73089503193342,21660.0,88.0,98.0,-1.3,-0.2,1.08,GOOD
1790985824605,1360,2080.0,123.02879305357764,21578.0,88.0,98.0,-1.3,-0.2,1.08,GOOD
1790985824605,1361,2056.0,150.37182541889436,21497.0,88.0,98.0,-1.3,-0.2,1.08,GOOD
1790985824605,1362,2016.0,124.4333970468078,21414.0,88.0,98.0,-1.3,-0.2,1.08,GOOD
1790985824605,1363,2183.0,80.40161170993174,21326.0,88.0,98.0,-1.3,-0.2,1.08,GOOD
1790985824605,1364,2162.0,62.911168051678864,21242.0,88.0,98.0,-1.3,-0.2,1.08,GOOD
1790985824605,1365,2155.0,86.788589448706,21156.0,88.0,98.0,-1.3,-0.2,1.08,GOOD
1790985824605,1366,2156.0,127.03450938431567,21075.0,88.0,98.0,-1.3,-0.2,1.08,GOOD
1790985824605,1367,2098.0,153.27657257703288,20988.0,88.0,98.0,-1.3,-0.2,1.08,GOOD
1790985824605,1368,2052.0,150.21745776087835,20899.0,88.0,98.0,-1.3,-0.2,1.08,GOOD
1790985824605,1369,2060.0,119.4183142839135,20812.0,88.0,98.0,-1.3,-0.2,1.08,GOOD
1790985824605,1370,2176.0,83.1019927136325,20722.0,88.0,98.0,-1.3,-0.2,1.08,GOOD
1790985824605,1371,2131.0,69.62249676533345,20635.0,88.0,98.0,-1.3,-0.2,1.08,GOOD
1790985824605,1372,2213.0,86.63358555544359,20557.0,88.0,98.0,-1.3,-0.2,1.08,GOOD
1790985824605,1373,2244.0,124.12247605918827,20472.0,88.0,98.0,-1.3,-0.2,1.08,GOOD
1790985824605,1374,2258.0,170.3830865795989,20385.0,88.0,98.0,-1.3,-0.2,1.08,GOOD
1790985824605,1375,2256.0,211.3977231681963,20304.0,88.0,98.0,-1.3,-0.2,1.08,GOOD
1790985824607,1376,2241.0,234.22603939960084,32000.0,88.0,98.0,-1.3,-0.2,1.08,GOOD
1790985824607,1377,2219.0,235.2062894711983,32000.0,88.0,98.0,-1.3,-0.2,1.08,GOOD
1790985824607,1378,2244.0,221.30784447588513,32000.0,88.0,98.0,-1.3,-0.2,1.08,GOOD
1790985824607,1379,2423.0,212.60195849235166,32000.0,88.0,98.0,-1.3,-0.2,1.08,GOOD
1790985824607,1380,2429.0,233.81450093609632,32000.0,88.0,98.0,-1.3,-0.2,1.08,GOOD
1790985824607,1381,2405.0,284.8196221013819,32000.0,88.0,98.0,-1.3,-0.2,1.08,GOOD
1790985824607,1382,2414.0,337.49320565496254,32000.0,88.0,98.0,-1.3,-0.2,1.08,GOOD
1790985824607,1383,2371.0,367.5593224505054,32000.0,88.0,98.0,-1.3,-0.2,1.08,GOOD
1790985824607,1384,2386.0,368.2201201447824,32000.0,88.0,98.0,-1.3,-0.2,1.08,GOOD
1790985824607,1385,2368.0,345.3013728463427,32000.0,88.0,98.0,-1.3,-0.2,1.08,GOOD
1790985824607,1386,2464.0,316.6668578229965,32000.0,88.0,98.0,-1.3,-0.2,1.08,GOOD
1790985824607,1387,2472.0,306.6126379859687,32000.0,88.0,98.0,-1.3,-0.2,1.08,GOOD
1790985824607,1388,2490.0,325.8139658094043,32000.0,88.0,98.0,-1.3,-0.2,1.08,GOOD
1790985824607,1389,2519.0,361.5364963416908,32000.0,88.0,98.0,-1.3,-0.2,1.08,GOOD
1790985824607,1390,2372.0,387.8153409041084,32000.0,88.0,98.0,-1.3,-0.2,1.08,GOOD
1790985824607,1391,2342.0,378.52050478983386,32000.0,88.0,98.0,-1.3,-0.2,1.08,GOOD
1790985824607,1392,2335.0,329.9456420621847,32000.0,88.0,98.0,-1.3,-0.2,1.08,GOOD
1790985824607,1393,2257.0,264.7450545169876,32000.0,88.0,98.0,-1.3,-0.2,1.08,GOOD
1790985824607,1394,2258.0,203.29227421701216,32000.0,88.0,98.0,-1.3,-0.2,1.08,GOOD
1790985824607,1395,2245.0,153.94818247725934,32000.0,88.0,98.0,-1.3,-0.2,1.08,GOOD
1790985824607,1396,2210.0,120.34134030807786,32000.0,88.0,98.0,-1.3,-0.2,1.08,GOOD
1790985824607,1397,2144.0,97.4716154022441,32000.0,88.0,98.0,-1.3,-0.2,1.08,GOOD
1790985824607,1398,2154.0,74.36654971474249,32000.0,88.0,98.0,-1.3,-0.2,1.08,GOOD
1790985824607,1399,2171.0,48.50545863203581,32000.0,88.0,98.0,-1.3,-0.2,1.08,GOOD
1790985824607,1400,2159.0,27.232437893178634,32000.0,88.0,98.0,-1.3,-0.2,1.08,GOOD
1790985824608,1401,1869.0,4.321007464613956,32000.0,88.0,98.0,-1.3,-0.2,1.08,GOOD
1790985824608,1402,1868.0,-46.213054961543484,32000.0,88.0,98.0,-1.3,-0.2,1.08,GOOD
1790985824608,1403,1877.0,-128.4426845859977,32000.0,88.0,98.0,-1.3,-0.2,1.08,GOOD
1790985824608,1404,2056.0,-203.41282829597668,32000.0,88.0,98.0,-1.3,-0.2,1.08,GOOD
1790985824608,1405,2041.0,-228.16674448942746,32000.0,88.0,98.0,-1.3,-0.2,1.08,GOOD
1790985824608,1406,2040.0,-196.96775390844854,32000.0,88.0,98.0,-1.3,-0.2,1.08,GOOD
1790985824608,1407,2044.0,-137.17011428581222,32000.0,88.0,98.0,-1.3,-0.2,1.08,GOOD
1790985824608,1408,1994.0,-82.2034010864372,32000.0,88.0,98.0,-1.3,-0.2,1.08,GOOD
1790985824608,1409,1998.0,-58.932995004030765,32000.0,88.0,98.0,-1.3,-0.2,1.08,GOOD
1790985824608,1410,1977.0,-76.20160834487652,32000.0,88.0,98.0,-1.3,-0.2,1.08,GOOD
1790985824608,1411,1948.0,-116.71254218495336,32000.0,88.0,98.0,-1.3,-0.2,1.08,GOOD
1790985824608,1412,1983.0,-150.62511388144605,32000.0,88.0,98.0,-1.3,-0.2,1.08,GOOD
1790985824608,1413,1995.0,-157.74214990929494,32000.0,88.0,98.0,-1.3,-0.2,1.08,GOOD
1790985824608,1414,1982.0,-143.20587116615724,32000.0,88.0,98.0,-1.3,-0.2,1.08,GOOD
1790985824608,1415,2004.0,-128.32051580484682,32000.0,88.0,98.0,-1.3,-0.2,1.08,GOOD
1790985824608,1416,1994.0,-122.72527015560742,32000.0,88.0,98.0,-1.3,-0.2,1.08,GOOD
1790985824608,1417,1996.0,-118.59394517769394,32000.0,88.0,98.0,-1.3,-0.2,1.08,GOOD
1790985824608,1418,2003.0,-109.1201535741001,32000.0,88.0,98.0,-1.3,-0.2,1.08,GOOD
1790985824608,1419,1979.0,-99.98936645494402,32000.0,88.0,98.0,-1.3,-0.2,1.08,GOOD
1790985824608,1420,1860.0,-106.49925277991906,32000.0,88.0,98.0,-1.3,-0.2,1.08,GOOD
1790985824608,1421,1964.0,-134.3657144763637,32000.0,88.0,98.0,-1.3,-0.2,1.08,GOOD
1790985824608,1422,2014.0,-159.9594142914578,32000.0,88.0,98.0,-1.3,-0.2,1.08,GOOD
1790985824608,1423,2007.0,-155.43118713252068,32000.0,88.0,98.0,-1.3,-0.2,1.08,GOOD
1790985824608,1424,2000.0,-126.8065183113051,32000.0,88.0,98.0,-1.3,-0.2,1.08,GOOD
1790985824608,1425,1977.0,-100.26599475348097,32000.0,88.0,98.0,-1.3,-0.2,1.08,GOOD
1790985824717,1426,1943.0,-90.84152067878526,32000.0,88.0,98.0,-1.3,-0.3,1.08,GOOD
1790985824717,1427,1936.0,-98.30764404826695,32000.0,88.0,98.0,-1.3,-0.3,1.08,GOOD
1790985824717,1428,1953.0,-115.33445793258304,32000.0,88.0,98.0,-1.3,-0.3,1.08,GOOD
1790985824717,1429,1967.0,-132.203516806951,32000.0,88.0,98.0,-1.3,-0.3,1.08,GOOD
1790985824717,1430,2049.0,-136.8778372695375,32000.0,88.0,98.0,-1.3,-0.3,1.08,GOOD
1790985824717,1431,2017.0,-119.3728013599037,32000.0,88.0,98.0,-1.3,-0.3,1.08,GOOD
1790985824717,1432,2009.0,-85.84046145085304,32000.0,88.0,98.0,-1.3,-0.3,1.08,GOOD
1790985824717,1433,1993.0,-57.643400332252476,32000.0,88.0,98.0,-1.3,-0.3,1.08,GOOD
1790985824717,1434,1870.0,-55.06401232127506,32000.0,88.0,98.0,-1.3,-0.3,1.08,GOOD
1790985824717,1435,1869.0,-86.6262560550255,32000.0,88.0,98.0,-1.3,-0.3,1.08,GOOD
1790985824717,1436,1881.0,-138.51221982919773,32000.0,88.0,98.0,-1.3,-0.3,1.08,GOOD
1790985824717,1437,1866.0,-182.56523573570638,32000.0,88.0,98.0,-1.3,-0.3,1.08,GOOD
1790985824717,1438,2085.0,-195.60725087425206,32000.0,88.0,98.0,-1.3,-0.3,1.08,GOOD
1790985824717,1439,2076.0,-163.07533065922803,32000.0,88.0,98.0,-1.3,-0.3,1.08,GOOD
1790985824717,1440,2089.0,-92.78212367841162,32000.0,88.0,98.0,-1.3,-0.3,1.08,GOOD
1790985824717,1441,2070.0,-17.91545359146087,32000.0,88.0,98.0,-1.3,-0.3,1.08,GOOD
1790985824717,1442,1988.0,28.49906780775011,32000.0,88.0,98.0,-1.3,-0.3,1.08,GOOD
