timestamp_ms,sample_seq,ecg_raw,ecg_cleaned,ppg_dc_ir,ecg_bpm,spo2_pct,pitch_deg,roll_deg,motion_g,signal_quality
1790983988302,1,2021.0,73.9120103571638,32000.0,81.2,98.0,-1.6,-0.2,1.08,GOOD
1790983988302,2,2013.0,45.64671726429805,32000.0,81.2,98.0,-1.6,-0.2,1.08,GOOD
1790983988302,3,1965.0,13.576002856350273,32000.0,81.2,98.0,-1.6,-0.2,1.08,GOOD
1790983988302,4,1921.0,-15.789044591000343,32000.0,81.2,98.0,-1.6,-0.2,1.08,GOOD
1790983988302,5,1945.0,-39.729177420610114,32000.0,81.2,98.0,-1.6,-0.2,1.08,GOOD
1790983988302,6,1955.0,-54.97072419109181,32000.0,81.2,98.0,-1.6,-0.2,1.08,GOOD
1790983988302,7,1941.0,-61.68761309953586,32000.0,81.2,98.0,-1.6,-0.2,1.08,GOOD
1790983988302,8,1941.0,-64.79688914378985,32000.0,81.2,98.0,-1.6,-0.2,1.08,GOOD
1790983988302,9,1946.0,-65.38834861200891,32000.0,81.2,98.0,-1.6,-0.2,1.08,GOOD
1790983988302,10,1961.0,-59.79415165989473,32000.0,81.2,98.0,-1.6,-0.2,1.08,GOOD
1790983988302,11,1954.0,-49.1749445398613,32000.0,81.2,98.0,-1.6,-0.2,1.08,GOOD
1790983988302,12,1988.0,-40.16327539326225,32000.0,81.2,98.0,-1.6,-0.2,1.08,GOOD
1790983988302,13,1971.0,-34.94663244256408,32000.0,81.2,98.0,-1.6,-0.2,1.08,GOOD
1790983988302,14,1979.0,-29.66286414930108,32000.0,81.2,98.0,-1.6,-0.2,1.08,GOOD
1790983988302,15,1990.0,-21.18358306094014,32000.0,81.2,98.0,-1.6,-0.2,1.08,GOOD
1790983988302,16,2706.0,17.054242259911092,32000.0,81.2,98.0,-1.6,-0.2,1.08,GOOD
1790983988302,17,2693.0,142.02677048979865,32000.0,81.2,98.0,-1.6,-0.2,1.08,GOOD
1790983988302,18,2720.0,354.1356934060782,32000.0,81.2,98.0,-1.6,-0.2,1.08,GOOD
1790983988302,19,2752.0,571.0696427258689,32000.0,81.2,98.0,-1.6,-0.2,1.08,GOOD
1790983988302,20,2373.0,706.9739744302137,32000.0,81.2,98.0,-1.6,-0.2,1.08,GOOD
1790983988302,21,2317.0,705.3137325567637,32000.0,81.2,98.0,-1.6,-0.2,1.08,GOOD
1790983988302,22,2253.0,565.8778983128902,32000.0,81.2,98.0,-1.6,-0.2,1.08,GOOD
1790983988302,23,2227.0,364.6074034859219,32000.0,81.2,98.0,-1.6,-0.2,1.08,GOOD
1790983988302,24,1702.0,177.22540373287484,32000.0,81.2,98.0,-1.6,-0.2,1.08,GOOD
1790983988302,25,1732.0,12.813880519744764,32000.0,81.2,98.0,-1.6,-0.2,1.08,GOOD
1790983988449,26,1695.0,-138.78543159519057,32000.0,81.2,98.0,-1.7,-0.2,1.08,GOOD
1790983988449,27,1657.0,-266.46841847491936,32000.0,81.2,98.0,-1.7,-0.2,1.08,GOOD
1790983988449,28,1884.0,-352.83506013739617,32000.0,81.2,98.0,-1.7,-0.2,1.08,GOOD
1790983988449,29,1945.0,-367.32821789704803,32000.0,81.2,98.0,-1.7,-0.2,1.08,GOOD
1790983988449,30,1984.0,-290.54607626186345,32000.0,81.2,98.0,-1.7,-0.2,1.08,GOOD
1790983988449,31,1960.0,-161.18551678391376,32000.0,81.2,98.0,-1.7,-0.2,1.08,GOOD
1790983988449,32,1997.0,-52.75109404635694,32000.0,81.2,98.0,-1.7,-0.2,1.08,GOOD
1790983988449,33,1978.0,-10.171734981123425,32000.0,81.2,98.0,-1.7,-0.2,1.08,GOOD
1790983988449,34,2018.0,-20.696827337265923,32000.0,81.2,98.0,-1.7,-0.2,1.08,GOOD
1790983988449,35,2030.0,-37.82627085902972,32000.0,81.2,98.0,-1.7,-0.2,1.08,GOOD
1790983988449,36,2123.0,-26.632519017120106,32000.0,81.2,98.0,-1.7,-0.2,1.08,GOOD
1790983988449,37,2064.0,9.800732490266755,32000.0,81.2,98.0,-1.7,-0.2,1.08,GOOD
1790983988449,38,2059.0,40.86751058037771,32000.0,81.2,98.0,-1.7,-0.2,1.08,GOOD
1790983988449,39,2092.0,48.49804196505885,32000.0,81.2,98.0,-1.7,-0.2,1.08,GOOD
1790983988449,40,2112.0,47.871462944547176,32000.0,81.2,98.0,-1.7,-0.2,1.08,GOOD
1790983988449,41,2085.0,56.82745183851739,32000.0,81.2,98.0,-1.7,-0.2,1.08,GOOD
1790983988449,42,2052.0,66.69547186639633,32000.0,81.2,98.0,-1.7,-0.2,1.08,GOOD
1790983988449,43,2061.0,59.9456482469728,32000.0,81.2,98.0,-1.7,-0.2,1.08,GOOD
1790983988449,44,2098.0,40.83382367882814,32000.0,81.2,98.0,-1.7,-0.2,1.08,GOOD
1790983988449,45,2130.0,32.27320292175757,32000.0,81.2,98.0,-1.7,-0.2,1.08,GOOD
1790983988449,46,2094.0,45.10324737009375,32000.0,81.2,98.0,-1.7,-0.2,1.08,GOOD
1790983988449,47,2069.0,63.56881278793804,32000.0,81.2,98.0,-1.7,-0.2,1.08,GOOD
1790983988449,48,1999.0,64.10209783775656,32000.0,81.2,98.0,-1.7,-0.2,1.08,GOOD
1790983988449,49,2047.0,41.229585113246856,32000.0,81.2,98.0,-1.7,-0.2,1.08,GOOD
1790983988449,50,2071.0,13.26773627281302,32000.0,81.2,98.0,-1.7,-0.2,1.08,GOOD
1790983988559,51,2047.0,0.05124040624286241,32000.0,81.2,98.0,-1.6,-0.3,1.08,GOOD
1790983988559,52,2005.0,-0.3138666263298422,32000.0,81.2,98.0,-1.6,-0.3,1.08,GOOD
1790983988559,53,2009.0,-1.9220356727391088,32000.0,81.2,98.0,-1.6,-0.3,1.08,GOOD
1790983988559,54,2038.0,-8.40712895736134,32000.0,81.2,98.0,-1.6,-0.3,1.08,GOOD
1790983988559,55,2054.0,-12.257460292413688,32000.0,81.2,98.0,-1.6,-0.3,1.08,GOOD
1790983988559,56,2174.0,-4.225726330643709,32000.0,81.2,98.0,-1.6,-0.3,1.08,GOOD
1790983988559,57,2133.0,22.15612596521532,32000.0,81.2,98.0,-1.6,-0.3,1.08,GOOD
1790983988559,58,2136.0,60.76185350526458,32000.0,81.2,98.0,-1.6,-0.3,1.08,GOOD
1790983988559,59,2165.0,95.56105124828672,32000.0,81.2,98.0,-1.6,-0.3,1.08,GOOD
1790983988559,60,2279.0,121.59574491855008,32000.0,81.2,98.0,-1.6,-0.3,1.08,GOOD
1790983988559,61,2257.0,146.50773201204248,32000.0,81.2,98.0,-1.6,-0.3,1.08,GOOD
1790983988559,62,2235.0,171.3656742353386,32000.0,81.2,98.0,-1.6,-0.3,1.08,GOOD
1790983988559,63,2259.0,189.95444786284384,32000.0,81.2,98.0,-1.6,-0.3,1.08,GOOD
1790983988559,64,2308.0,203.80593557718717,32000.0,81.2,98.0,-1.6,-0.3,1.08,GOOD
1790983988559,65,2332.0,218.7521054996667,32000.0,81.2,98.0,-1.6,-0.3,1.08,GOOD
1790983988559,66,2305.0,232.17333476695012,32000.0,81.2,98.0,-1.6,-0.3,1.08,GOOD
1790983988559,67,2290.0,237.0471965006574,32000.0,81.2,98.0,-1.6,-0.3,1.08,GOOD
1790983988559,68,2291.0,234.13863317682492,32000.0,81.2,98.0,-1.6,-0.3,1.08,GOOD
1790983988559,69,2335.0,231.39449119710864,32000.0,81.2,98.0,-1.6,-0.3,1.08,GOOD
1790983988559,70,2342.0,232.81820236571116,32000.0,81.2,98.0,-1.6,-0.3,1.08,GOOD
1790983988559,71,2324.0,234.09519192216925,32000.0,81.2,98.0,-1.6,-0.3,1.08,GOOD
1790983988559,72,2213.0,227.12989766685584,32000.0,81.2,98.0,-1.6,-0.3,1.08,GOOD
1790983988559,73,2228.0,207.19766910411772,32000.0,81.2,98.0,-1.6,-0.3,1.08,GOOD
1790983988559,74,2255.0,179.8654089080153,32000.0,81.2,98.0,-1.6,-0.3,1.08,GOOD
1790983988559,75,2260.0,155.2497121274418,32000.0,81.2,98.0,-1.6,-0.3,1.08,GOOD
1790983988560,76,2213.0,135.3009274726686,32000.0,81.2,98.0,-1.6,-0.3,1.08,GOOD
1790983988560,77,2190.0,117.53994712252577,32000.0,81.2,98.0,-1.6,-0.3,1.08,GOOD
1790983988560,78,2193.0,104.77948125094322,32000.0,81.2,98.0,-1.6,-0.3,1.08,GOOD
1790983988560,79,2199.0,99.3616768098752,32000.0,81.2,98.0,-1.6,-0.3,1.08,GOOD
1790983988560,80,2161.0,92.76949772407552,32000.0,81.2,98.0,-1.6,-0.3,1.08,GOOD
1790983988560,81,2124.0,72.76695606543254,32000.0,81.2,98.0,-1.6,-0.3,1.08,GOOD
1790983988560,82,2097.0,40.93754071928724,32000.0,81.2,98.0,-1.6,-0.3,1.08,GOOD
1790983988560,83,2092.0,12.153647742516675,32000.0,81.2,98.0,-1.6,-0.3,1.08,GOOD
1790983988560,84,2050.0,-6.639390356195586,32000.0,81.2,98.0,-1.6,-0.3,1.08,GOOD
1790983988560,85,2054.0,-25.331116638704824,32000.0,81.2,98.0,-1.6,-0.3,1.08,GOOD
1790983988560,86,2037.0,-51.69398053821696,32000.0,81.2,98.0,-1.6,-0.3,1.08,GOOD
1790983988560,87,1891.0,-82.39177627370732,32000.0,81.2,98.0,-1.6,-0.3,1.08,GOOD
1790983988560,88,1920.0,-115.26721594294457,32000.0,81.2,98.0,-1.6,-0.3,1.08,GOOD
1790983988560,89,1945.0,-147.4393306596461,32000.0,81.2,98.0,-1.6,-0.3,1.08,GOOD
1790983988560,90,1947.0,-172.23404283987225,32000.0,81.2,98.0,-1.6,-0.3,1.08,GOOD
1790983988560,91,1871.0,-189.89765850045546,32000.0,81.2,98.0,-1.6,-0.3,1.08,GOOD
1790983988560,92,1866.0,-204.64951137863932,32000.0,81.2,98.0,-1.6,-0.3,1.08,GOOD
1790983988560,93,1875.0,-213.68033570639102,32000.0,81.2,98.0,-1.6,-0.3,1.08,GOOD
1790983988560,94,1895.0,-213.70175055480766,32000.0,81.2,98.0,-1.6,-0.3,1.08,GOOD
1790983988560,95,1993.0,-207.37365851439978,32000.0,81.2,98.0,-1.6,-0.3,1.08,GOOD
1790983988560,96,1965.0,-193.9774413104831,32000.0,81.2,98.0,-1.6,-0.3,1.08,GOOD
1790983988560,97,1953.0,-170.30048794127998,32000.0,81.2,98.0,-1.6,-0.3,1.08,GOOD
1790983988560,98,1952.0,-140.269841319997,32000.0,81.2,98.0,-1.6,-0.3,1.08,GOOD
1790983988560,99,2042.0,-111.93051149633067,32000.0,81.2,98.0,-1.6,-0.3,1.08,GOOD
1790983988560,100,2027.0,-91.21368463367237,32000.0,81.2,98.0,-1.6,-0.3,1.08,GOOD
1790983988641,101,2014.0,-81.15321486836027,32000.0,81.2,98.0,-1.6,-0.3,1.08,GOOD
1790983988641,102,2000.0,-78.11744218934331,32000.0,81.2,98.0,-1.6,-0.3,1.08,GOOD
1790983988641,103,1985.0,-73.42644460764551,32000.0,81.2,98.0,-1.6,-0.3,1.08,GOOD
1790983988641,104,1994.0,-67.34415040410158,32000.0,81.2,98.0,-1.6,-0.3,1.08,GOOD
1790983988641,105,1994.0,-70.18866815656504,32000.0,81.2,98.0,-1.6,-0.3,1.08,GOOD
1790983988641,106,1989.0,-85.04924144136766,32000.0,81.2,98.0,-1.6,-0.3,1.08,GOOD
1790983988641,107,1922.0,-102.00999258824146,32000.0,81.2,98.0,-1.6,-0.3,1.08,GOOD
1790983988641,108,1934.0,-111.93297016484212,32000.0,81.2,98.0,-1.6,-0.3,1.08,GOOD
1790983988641,109,1948.0,-115.77334419634485,32000.0,81.2,98.0,-1.6,-0.3,1.08,GOOD
1790983988641,110,1952.0,-120.51731961373726,32000.0,81.2,98.0,-1.6,-0.3,1.08,GOOD
1790983988641,111,1851.0,-133.4196743664092,32000.0,81.2,98.0,-1.6,-0.3,1.08,GOOD
1790983988641,112,1862.0,-155.27288120235016,32000.0,81.2,98.0,-1.6,-0.3,1.08,GOOD
1790983988641,113,1876.0,-175.065767160777,32000.0,81.2,98.0,-1.6,-0.3,1.08,GOOD
1790983988641,114,1879.0,-182.68310996384156,32000.0,81.2,98.0,-1.6,-0.3,1.08,GOOD
1790983988641,115,1979.0,-179.8282956446105,32000.0,81.2,98.0,-1.6,-0.3,1.08,GOOD
1790983988641,116,1955.0,-167.30593796945726,32000.0,81.2,98.0,-1.6,-0.3,1.08,GOOD
1790983988641,117,1959.0,-142.06024082322656,32000.0,81.2,98.0,-1.6,-0.3,1.08,GOOD
1790983988641,118,1946.0,-108.75506873206767,32000.0,81.2,98.0,-1.6,-0.3,1.08,GOOD
1790983988641,119,2002.0,-79.35183532450854,32000.0,81.2,98.0,-1.6,-0.3,1.08,GOOD
1790983988641,120,1990.0,-63.81264633178388,32000.0,81.2,98.0,-1.6,-0.3,1.08,GOOD
1790983988641,121,1985.0,-63.127254487326056,32000.0,81.2,98.0,-1.6,-0.3,1.08,GOOD
1790983988641,122,1979.0,-67.67035024886562,32000.0,81.2,98.0,-1.6,-0.3,1.08,GOOD
1790983988641,123,2050.0,-62.641911363083175,32000.0,81.2,98.0,-1.6,-0.3,1.08,GOOD
1790983988641,124,2053.0,-41.72939791115287,32000.0,81.2,98.0,-1.6,-0.3,1.08,GOOD
1790983988641,125,2047.0,-16.358783031025112,32000.0,81.2,98.0,-1.6,-0.3,1.08,GOOD
1790983988868,126,2050.0,-1.8106038461634837,32000.0,81.2,98.0,-1.7,-0.3,1.08,GOOD
1790983988868,127,1950.0,-1.1031316332775796,32000.0,81.2,98.0,-1.7,-0.3,1.08,GOOD
1790983988868,128,1969.0,-11.749714547265496,32000.0,81.2,98.0,-1.7,-0.3,1.08,GOOD
1790983988868,129,1940.0,-32.579954089022635,32000.0,81.2,98.0,-1.7,-0.3,1.08,GOOD
1790983988868,130,1974.0,-60.16073339376742,32000.0,81.2,98.0,-1.7,-0.3,1.08,GOOD
1790983988868,131,1965.0,-85.16221103329588,32000.0,81.2,98.0,-1.7,-0.3,1.08,GOOD
1790983988868,132,1983.0,-94.39485321375409,32000.0,81.2,98.0,-1.7,-0.3,1.08,GOOD
1790983988868,133,1993.0,-81.87165134324283,32000.0,81.2,98.0,-1.7,-0.3,1.08,GOOD
1790983988868,134,1995.0,-57.03171523423254,32000.0,81.2,98.0,-1.7,-0.3,1.08,GOOD
1790983988868,135,1919.0,-40.927160466341974,32000.0,81.2,98.0,-1.7,-0.3,1.08,GOOD
1790983988868,136,1919.0,-49.473697902061176,32000.0,81.2,98.0,-1.7,-0.3,1.08,GOOD
1790983988868,137,1928.0,-75.48981943721834,32000.0,81.2,98.0,-1.7,-0.3,1.08,GOOD
1790983988868,138,1927.0,-97.20711013719225,32000.0,81.2,98.0,-1.7,-0.3,1.08,GOOD
1790983988868,139,1958.0,-103.41766374358781,32000.0,81.2,98.0,-1.7,-0.3,1.08,GOOD
1790983988868,140,1940.0,-98.42011024296167,32000.0,81.2,98.0,-1.7,-0.3,1.08,GOOD
1790983988868,141,1943.0,-90.23359790268572,32000.0,81.2,98.0,-1.7,-0.3,1.08,GOOD
1790983988868,142,1943.0,-82.13956160604661,32000.0,81.2,98.0,-1.7,-0.3,1.08,GOOD
1790983988868,143,2059.0,-69.48516119475954,32000.0,81.2,98.0,-1.7,-0.3,1.08,GOOD
1790983988868,144,2044.0,-45.28440217511932,32000.0,81.2,98.0,-1.7,-0.3,1.08,GOOD
1790983988868,145,2036.0,-14.065052011286058,32000.0,81.2,98.0,-1.7,-0.3,1.08,GOOD
1790983988868,146,2036.0,11.076724674459903,32000.0,81.2,98.0,-1.7,-0.3,1.08,GOOD
1790983988868,147,2041.0,25.55876522901896,32000.0,81.2,98.0,-1.7,-0.3,1.08,GOOD
1790983988868,148,2045.0,32.35953364028995,32000.0,81.2,98.0,-1.7,-0.3,1.08,GOOD
1790983988868,149,2042.0,32.22633758079054,32000.0,81.2,98.0,-1.7,-0.3,1.08,GOOD
1790983988868,150,2046.0,26.02356022227424,32000.0,81.2,98.0,-1.7,-0.3,1.08,GOOD
1790983988869,151,1995.0,18.027258493779502,32000.0,81.2,98.0,-1.7,-0.3,1.08,GOOD
1790983988869,152,2000.0,10.690643066717854,32000.0,81.2,98.0,-1.7,-0.3,1.08,GOOD
1790983988869,153,2007.0,3.011493584515957,32000.0,81.2,98.0,-1.7,-0.3,1.08,GOOD
1790983988869,154,2001.0,-6.040423461500412,32000.0,81.2,98.0,-1.7,-0.3,1.08,GOOD
1790983988869,155,1903.0,-19.63400037770649,32000.0,81.2,98.0,-1.7,-0.3,1.08,GOOD
1790983988869,156,1918.0,-41.51498722561393,32000.0,81.2,98.0,-1.7,-0.3,1.08,GOOD
1790983988869,157,1920.0,-66.31276481408526,32000.0,81.2,98.0,-1.7,-0.3,1.08,GOOD
1790983988869,158,1916.0,-84.41302072470259,32000.0,81.2,98.0,-1.7,-0.3,1.08,GOOD
1790983988869,159,1965.0,-93.17541827818283,32000.0,81.2,98.0,-1.7,-0.3,1.08,GOOD
1790983988869,160,1955.0,-91.56844329168088,32000.0,81.2,98.0,-1.7,-0.3,1.08,GOOD
1790983988869,161,1963.0,-77.83582323801244,32000.0,81.2,98.0,-1.7,-0.3,1.08,GOOD
1790983988869,162,1956.0,-56.61119770136676,32000.0,81.2,98.0,-1.7,-0.3,1.08,GOOD
1790983988869,163,2087.0,-33.93188378553771,32000.0,81.2,98.0,-1.7,-0.3,1.08,GOOD
1790983988869,164,2073.0,-8.233799800712223,32000.0,81.2,98.0,-1.7,-0.3,1.08,GOOD
1790983988869,165,2077.0,21.597477524303102,32000.0,81.2,98.0,-1.7,-0.3,1.08,GOOD
1790983988869,166,2083.0,50.65740240829015,32000.0,81.2,98.0,-1.7,-0.3,1.08,GOOD
1790983988869,167,2106.0,75.63385656807523,32000.0,81.2,98.0,-1.7,-0.3,1.08,GOOD
1790983988869,168,2094.0,93.22415890429151,32000.0,81.2,98.0,-1.7,-0.3,1.08,GOOD
1790983988869,169,2088.0,97.17297925851977,32000.0,81.2,98.0,-1.7,-0.3,1.08,GOOD
1790983988869,170,2098.0,88.38501684211695,32000.0,81.2,98.0,-1.7,-0.3,1.08,GOOD
1790983988869,171,2019.0,76.29478722138066,32000.0,81.2,98.0,-1.7,-0.3,1.08,GOOD
1790983988869,172,2034.0,64.53346117793123,32000.0,81.2,98.0,-1.7,-0.3,1.08,GOOD
1790983988869,173,2019.0,49.192378277100644,32000.0,81.2,98.0,-1.7,-0.3,1.08,GOOD
1790983988869,174,1963.0,26.53603414348118,32000.0,81.2,98.0,-1.7,-0.3,1.08,GOOD
1790983988869,175,1981.0,-2.603561070449578,32000.0,81.2,98.0,-1.7,-0.3,1.08,GOOD
1790983988965,176,1996.0,-26.73616338707776,32000.0,80.4,98.0,-1.7,-0.2,1.08,GOOD
1790983988965,177,1979.0,-33.78469509786898,32000.0,80.4,98.0,-1.7,-0.2,1.08,GOOD
1790983988965,178,2038.0,-26.398599784936827,32000.0,80.4,98.0,-1.7,-0.2,1.08,GOOD
1790983988965,179,2013.0,-14.248287303488274,32000.0,80.4,98.0,-1.7,-0.2,1.08,GOOD
1790983988965,180,2007.0,-3.585598163593184,32000.0,80.4,98.0,-1.7,-0.2,1.08,GOOD
1790983988965,181,2016.0,3.97625912494748,32000.0,80.4,98.0,-1.7,-0.2,1.08,GOOD
1790983988965,182,2068.0,12.0624357647391,32000.0,80.4,98.0,-1.7,-0.2,1.08,GOOD
1790983988965,183,2050.0,23.364056066298073,32000.0,80.4,98.0,-1.7,-0.2,1.08,GOOD
1790983988965,184,2046.0,33.187188104262404,32000.0,80.4,98.0,-1.7,-0.2,1.08,GOOD
1790983988965,185,2053.0,37.417184055118874,32000.0,80.4,98.0,-1.7,-0.2,1.08,GOOD
1790983988965,186,2049.0,40.023093083111405,32000.0,80.4,98.0,-1.7,-0.2,1.08,GOOD
1790983988965,187,2050.0,44.193326378370045,32000.0,80.4,98.0,-1.7,-0.2,1.08,GOOD
1790983988965,188,2034.0,45.22908824072714,32000.0,80.4,98.0,-1.7,-0.2,1.08,GOOD
1790983988965,189,2022.0,37.79114642447381,32000.0,80.4,98.0,-1.7,-0.2,1.08,GOOD
1790983988965,190,1992.0,23.642162735808093,32000.0,80.4,98.0,-1.7,-0.2,1.08,GOOD
1790983988965,191,2018.0,9.96403588871289,32000.0,80.4,98.0,-1.7,-0.2,1.08,GOOD
1790983988965,192,2016.0,2.614250100401126,32000.0,80.4,98.0,-1.7,-0.2,1.08,GOOD
1790983988965,193,2001.0,0.11031484686788717,32000.0,80.4,98.0,-1.7,-0.2,1.08,GOOD
1790983988965,194,1921.0,-6.477651944054587,32000.0,80.4,98.0,-1.7,-0.2,1.08,GOOD
1790983988965,195,1934.0,-23.694691747229434,32000.0,80.4,98.0,-1.7,-0.2,1.08,GOOD
1790983988965,196,1951.0,-45.351789298013664,32000.0,80.4,98.0,-1.7,-0.2,1.08,GOOD
1790983988965,197,1949.0,-60.14058724324613,32000.0,80.4,98.0,-1.7,-0.2,1.08,GOOD
1790983988965,198,2345.0,-50.63111616351036,32000.0,80.4,98.0,-1.7,-0.2,1.08,GOOD
1790983988965,199,2367.0,15.103319429720461,32000.0,80.4,98.0,-1.7,-0.2,1.08,GOOD
1790983988965,200,2410.0,142.3204783699587,32000.0,80.4,98.0,-1.7,-0.2,1.08,GOOD
1790983989050,201,2447.0,286.2712128640302,32000.0,80.4,98.0,-1.7,-0.3,1.09,GOOD
1790983989050,202,2632.0,404.543043483901,32000.0,80.4,98.0,-1.7,-0.3,1.09,GOOD
1790983989050,203,2538.0,485.46831287011514,32000.0,80.4,98.0,-1.7,-0.3,1.09,GOOD
1790983989050,204,2501.0,522.6168880896389,32000.0,80.4,98.0,-1.7,-0.3,1.09,GOOD
1790983989050,205,2428.0,512.0571901934952,32000.0,80.4,98.0,-1.7,-0.3,1.09,GOOD
1790983989050,206,1818.0,445.76485334844847,32000.0,80.4,98.0,-1.7,-0.3,1.09,GOOD
1790983989050,207,1804.0,294.4461782324358,32000.0,80.4,98.0,-1.7,-0.3,1.09,GOOD
1790983989050,208,1761.0,66.22348690174135,32000.0,80.4,98.0,-1.7,-0.3,1.09,GOOD
1790983989050,209,1743.0,-163.1644756140851,32000.0,80.4,98.0,-1.7,-0.3,1.09,GOOD
1790983989050,210,1918.0,-313.71685324153873,32000.0,80.4,98.0,-1.7,-0.3,1.09,GOOD
1790983989050,211,1983.0,-341.14873215722685,32000.0,80.4,98.0,-1.7,-0.3,1.09,GOOD
1790983989050,212,1998.0,-256.124740957718,32000.0,80.4,98.0,-1.7,-0.3,1.09,GOOD
1790983989050,213,1983.0,-128.83230101323932,32000.0,80.4,98.0,-1.7,-0.3,1.09,GOOD
1790983989050,214,1991.0,-37.400093607972245,32000.0,80.4,98.0,-1.7,-0.3,1.09,GOOD
1790983989050,215,2015.0,-10.020863038304821,32000.0,80.4,98.0,-1.7,-0.3,1.09,GOOD
1790983989050,216,2043.0,-19.94119881243856,32000.0,80.4,98.0,-1.7,-0.3,1.09,GOOD
1790983989050,217,2032.0,-27.37533608965913,32000.0,80.4,98.0,-1.7,-0.3,1.09,GOOD
1790983989050,218,1988.0,-20.73425076256477,32000.0,80.4,98.0,-1.7,-0.3,1.09,GOOD
1790983989050,219,1979.0,-16.59996596886372,32000.0,80.4,98.0,-1.7,-0.3,1.09,GOOD
1790983989050,220,2007.0,-27.03144425858039,32000.0,80.4,98.0,-1.7,-0.3,1.09,GOOD
1790983989050,221,2042.0,-40.65378364290432,32000.0,80.4,98.0,-1.7,-0.3,1.09,GOOD
1790983989050,222,2082.0,-37.72137199641605,32000.0,80.4,98.0,-1.7,-0.3,1.09,GOOD
1790983989050,223,2041.0,-14.785521432648297,32000.0,80.4,98.0,-1.7,-0.3,1.09,GOOD
1790983989050,224,2020.0,9.882104957853999,32000.0,80.4,98.0,-1.7,-0.3,1.09,GOOD
1790983989050,225,2032.0,17.622357389784767,32000.0,80.4,98.0,-1.7,-0.3,1.09,GOOD
1790983989211,226,2147.0,13.858215598691405,32000.0,80.4,98.0,-1.7,-0.3,1.08,GOOD
1790983989211,227,2147.0,21.369505150272417,32000.0,80.4,98.0,-1.7,-0.3,1.08,GOOD
1790983989211,228,2121.0,47.864388319950955,32000.0,80.4,98.0,-1.7,-0.3,1.08,GOOD
1790983989211,229,2106.0,76.73832638876242,32000.0,80.4,98.0,-1.7,-0.3,1.08,GOOD
1790983989211,230,2123.0,91.73679143369546,32000.0,80.4,98.0,-1.7,-0.3,1.08,GOOD
1790983989211,231,2151.0,93.00251433225053,32000.0,80.4,98.0,-1.7,-0.3,1.08,GOOD
1790983989211,232,2157.0,89.73183662369001,32000.0,80.4,98.0,-1.7,-0.3,1.08,GOOD
1790983989211,233,2140.0,88.55230979487791,32000.0,80.4,98.0,-1.7,-0.3,1.08,GOOD
1790983989211,234,2098.0,88.98130670362275,32000.0,80.4,98.0,-1.7,-0.3,1.08,GOOD
1790983989211,235,2125.0,86.99160525452245,32000.0,80.4,98.0,-1.7,-0.3,1.08,GOOD
1790983989211,236,2148.0,82.19684320391721,32000.0,80.4,98.0,-1.7,-0.3,1.08,GOOD
1790983989211,237,2139.0,77.4730669624644,32000.0,80.4,98.0,-1.7,-0.3,1.08,GOOD
1790983989211,238,2113.0,73.28454070145426,32000.0,80.4,98.0,-1.7,-0.3,1.08,GOOD
1790983989211,239,2114.0,69.39319714454119,32000.0,80.4,98.0,-1.7,-0.3,1.08,GOOD
1790983989211,240,2138.0,68.34405002747067,32000.0,80.4,98.0,-1.7,-0.3,1.08,GOOD
1790983989211,241,2151.0,71.40121485492442,32000.0,80.4,98.0,-1.7,-0.3,1.08,GOOD
1790983989211,242,2168.0,75.68736359043916,32000.0,80.4,98.0,-1.7,-0.3,1.08,GOOD
1790983989211,243,2152.0,79.37620080117375,32000.0,80.4,98.0,-1.7,-0.3,1.08,GOOD
1790983989211,244,2143.0,84.07523972309833,32000.0,80.4,98.0,-1.7,-0.3,1.08,GOOD
1790983989211,245,2160.0,90.417945024185,32000.0,80.4,98.0,-1.7,-0.3,1.08,GOOD
1790983989211,246,2344.0,102.32980943660607,32000.0,80.4,98.0,-1.7,-0.3,1.08,GOOD
1790983989211,247,2335.0,130.70523507140248,32000.0,80.4,98.0,-1.7,-0.3,1.08,GOOD
1790983989211,248,2318.0,175.5531149852157,32000.0,80.4,98.0,-1.7,-0.3,1.08,GOOD
1790983989211,249,2318.0,220.4637194907645,32000.0,80.4,98.0,-1.7,-0.3,1.08,GOOD
1790983989211,250,2369.0,253.45805035439142,32000.0,80.4,98.0,-1.7,-0.3,1.08,GOOD
1790983989292,251,2369.0,272.1986515547263,32000.0,80.4,98.0,-1.7,-0.3,1.08,GOOD
1790983989292,252,2379.0,275.3183366375564,32000.0,80.4,98.0,-1.7,-0.3,1.08,GOOD
1790983989292,253,2371.0,266.9041692692024,32000.0,80.4,98.0,-1.7,-0.3,1.08,GOOD
1790983989292,254,2283.0,256.57312824654537,32000.0,80.4,98.0,-1.7,-0.3,1.08,GOOD
1790983989292,255,2297.0,245.60322442736043,32000.0,80.4,98.0,-1.7,-0.3,1.08,GOOD
1790983989292,256,2291.0,227.18649689218546,32000.0,80.4,98.0,-1.7,-0.3,1.08,GOOD
1790983989292,257,2301.0,199.16299845567949,32000.0,80.4,98.0,-1.7,-0.3,1.08,GOOD
1790983989292,258,2201.0,166.26639994534654,32000.0,80.4,98.0,-1.7,-0.3,1.08,GOOD
1790983989292,259,2213.0,135.38349678796988,32000.0,80.4,98.0,-1.7,-0.3,1.08,GOOD
1790983989292,260,2219.0,113.56287071420758,32000.0,80.4,98.0,-1.7,-0.3,1.08,GOOD
1790983989292,261,2214.0,101.35440408764455,32000.0,80.4,98.0,-1.7,-0.3,1.08,GOOD
1790983989292,262,2062.0,83.54469518074619,32000.0,80.4,98.0,-1.7,-0.3,1.08,GOOD
1790983989292,263,2059.0,43.012792705119246,32000.0,80.4,98.0,-1.7,-0.3,1.08,GOOD
1790983989292,264,2057.0,-11.150774176187083,32000.0,80.4,98.0,-1.7,-0.3,1.08,GOOD
1790983989292,265,2064.0,-52.3993423143268,32000.0,80.4,98.0,-1.7,-0.3,1.08,GOOD
1790983989292,266,2088.0,-70.89696503979717,32000.0,80.4,98.0,-1.7,-0.3,1.08,GOOD
1790983989292,267,2049.0,-76.76593707623742,32000.0,80.4,98.0,-1.7,-0.3,1.08,GOOD
1790983989292,268,2009.0,-81.31243468219023,32000.0,80.4,98.0,-1.7,-0.3,1.08,GOOD
1790983989292,269,1993.0,-87.95360696340859,32000.0,80.4,98.0,-1.7,-0.3,1.08,GOOD
1790983989292,270,2004.0,-95.79950862390695,32000.0,80.4,98.0,-1.7,-0.3,1.08,GOOD
1790983989292,271,1987.0,-107.24175326062884,32000.0,80.4,98.0,-1.7,-0.3,1.08,GOOD
1790983989292,272,1984.0,-125.58790169844018,32000.0,80.4,98.0,-1.7,-0.3,1.08,GOOD
1790983989292,273,1978.0,-144.6581581924219,32000.0,80.4,98.0,-1.7,-0.3,1.08,GOOD
1790983989292,274,1991.0,-151.08921778203,32000.0,80.4,98.0,-1.7,-0.3,1.08,GOOD
1790983989292,275,1994.0,-141.0917003920124,32000.0,80.4,98.0,-1.7,-0.3,1.08,GOOD
1790983989374,276,1992.0,-127.16503035402621,32000.0,80.4,98.0,-1.7,-0.3,1.08,GOOD
1790983989374,277,1996.0,-122.98809778824025,32000.0,80.4,98.0,-1.7,-0.3,1.08,GOOD
1790983989374,278,1957.0,-128.19298252366943,32000.0,80.4,98.0,-1.7,-0.3,1.08,GOOD
1790983989374,279,1965.0,-133.76003530204628,32000.0,80.4,98.0,-1.7,-0.3,1.08,GOOD
1790983989374,280,1964.0,-135.25707976347795,32000.0,80.4,98.0,-1.7,-0.3,1.08,GOOD
1790983989374,281,1961.0,-136.8607832308757,32000.0,80.4,98.0,-1.7,-0.3,1.08,GOOD
1790983989374,282,1891.0,-146.4514256523687,32000.0,80.4,98.0,-1.7,-0.3,1.08,GOOD
1790983989374,283,1906.0,-165.48050699151227,32000.0,80.4,98.0,-1.7,-0.3,1.08,GOOD
1790983989374,284,1908.0,-183.47472479734284,32000.0,80.4,98.0,-1.7,-0.3,1.08,GOOD
1790983989374,285,1918.0,-190.08414094874226,32000.0,80.4,98.0,-1.7,-0.3,1.08,GOOD
1790983989374,286,1951.0,-186.91701393633247,32000.0,80.4,98.0,-1.7,-0.3,1.08,GOOD
1790983989374,287,1928.0,-179.9244182230039,32000.0,80.4,98.0,-1.7,-0.3,1.08,GOOD
1790983989374,288,1917.0,-171.53595836492542,32000.0,80.4,98.0,-1.7,-0.3,1.08,GOOD
1790983989374,289,1922.0,-162.31254527229316,32000.0,80.4,98.0,-1.7,-0.3,1.08,GOOD
1790983989374,290,1940.0,-153.6590581938088,32000.0,80.4,98.0,-1.7,-0.3,1.08,GOOD
1790983989374,291,1928.0,-149.25407898481785,32000.0,80.4,98.0,-1.7,-0.3,1.08,GOOD
1790983989374,292,1927.0,-151.36763907295853,32000.0,80.4,98.0,-1.7,-0.3,1.08,GOOD
1790983989374,293,1929.0,-155.03104022179213,32000.0,80.4,98.0,-1.7,-0.3,1.08,GOOD
1790983989374,294,2005.0,-149.37582705306625,32000.0,80.4,98.0,-1.7,-0.3,1.08,GOOD
1790983989374,295,1999.0,-128.4095549377651,32000.0,80.4,98.0,-1.7,-0.3,1.08,GOOD
1790983989374,296,1998.0,-100.87518304745106,32000.0,80.4,98.0,-1.7,-0.3,1.08,GOOD
1790983989374,297,2004.0,-80.62578910796827,32000.0,80.4,98.0,-1.7,-0.3,1.08,GOOD
1790983989374,298,2007.0,-69.45513532264945,32000.0,80.4,98.0,-1.7,-0.3,1.08,GOOD
1790983989374,299,2006.0,-61.24154163173245,32000.0,80.4,98.0,-1.7,-0.3,1.08,GOOD
1790983989374,300,2011.0,-55.123771382197965,32000.0,80.4,98.0,-1.7,-0.3,1.08,GOOD
1790983989470,301,2013.0,-54.27150067369217,32000.0,80.4,98.0,-1.8,-0.3,1.08,GOOD
1790983989470,302,1962.0,-59.322156507924845,32000.0,80.4,98.0,-1.8,-0.3,1.08,GOOD
1790983989470,303,1977.0,-67.90764925314312,32000.0,80.4,98.0,-1.8,-0.3,1.08,GOOD
1790983989470,304,1979.0,-75.60507732455297,32000.0,80.4,98.0,-1.8,-0.3,1.08,GOOD
1790983989470,305,1966.0,-80.44158384848419,32000.0,80.4,98.0,-1.8,-0.3,1.08,GOOD
1790983989470,306,1892.0,-88.6604782879754,32000.0,80.4,98.0,-1.8,-0.3,1.08,GOOD
1790983989470,307,1904.0,-106.91465771467136,32000.0,80.4,98.0,-1.8,-0.3,1.08,GOOD
1790983989470,308,1914.0,-128.83160521327642,32000.0,80.4,98.0,-1.8,-0.3,1.08,GOOD
1790983989470,309,1906.0,-142.20288028710883,32000.0,80.4,98.0,-1.8,-0.3,1.08,GOOD
1790983989470,310,1970.0,-143.40286154704899,32000.0,80.4,98.0,-1.8,-0.3,1.08,GOOD
1790983989470,311,1962.0,-133.46121070718874,32000.0,80.4,98.0,-1.8,-0.3,1.08,GOOD
1790983989470,312,1962.0,-114.27495327584093,32000.0,80.4,98.0,-1.8,-0.3,1.08,GOOD
1790983989470,313,1954.0,-92.17262208147406,32000.0,80.4,98.0,-1.8,-0.3,1.08,GOOD
1790983989470,314,2010.0,-73.66625131195835,32000.0,80.4,98.0,-1.8,-0.3,1.08,GOOD
1790983989470,315,1999.0,-60.41806987446295,32000.0,80.4,98.0,-1.8,-0.3,1.08,GOOD
1790983989470,316,2000.0,-51.923893635606156,32000.0,80.4,98.0,-1.8,-0.3,1.08,GOOD
1790983989470,317,2010.0,-45.97092109756433,32000.0,80.4,98.0,-1.8,-0.3,1.08,GOOD
1790983989470,318,2040.0,-36.730191911784786,32000.0,80.4,98.0,-1.8,-0.3,1.08,GOOD
1790983989470,319,2029.0,-22.007678700855905,32000.0,80.4,98.0,-1.8,-0.3,1.08,GOOD
1790983989470,320,2024.0,-9.300710098510365,32000.0,80.4,98.0,-1.8,-0.3,1.08,GOOD
1790983989470,321,2028.0,-5.89339039711987,32000.0,80.4,98.0,-1.8,-0.3,1.08,GOOD
1790983989470,322,1968.0,-10.556943224110785,32000.0,80.4,98.0,-1.8,-0.3,1.08,GOOD
1790983989470,323,1985.0,-20.04424445118727,32000.0,80.4,98.0,-1.8,-0.3,1.08,GOOD
1790983989470,324,1978.0,-32.54039059657992,32000.0,80.4,98.0,-1.8,-0.3,1.08,GOOD
1790983989470,325,1974.0,-46.02478259917159,32000.0,80.4,98.0,-1.8,-0.3,1.08,GOOD
1790983989718,326,1927.0,-59.84536998449218,32000.0,80.4,98.0,-1.6,-0.4,1.09,GOOD
1790983989718,327,1953.0,-72.54378612964138,32000.0,80.4,98.0,-1.6,-0.4,1.09,GOOD
1790983989718,328,1965.0,-78.73224042220778,32000.0,80.4,98.0,-1.6,-0.4,1.09,GOOD
1790983989718,329,1958.0,-76.10451395939336,32000.0,80.4,98.0,-1.6,-0.4,1.09,GOOD
1790983989718,330,1896.0,-73.53270188710704,32000.0,80.4,98.0,-1.6,-0.4,1.09,GOOD
1790983989718,331,1901.0,-81.7472591904978,32000.0,80.4,98.0,-1.6,-0.4,1.09,GOOD
1790983989718,332,1914.0,-97.31951006080399,32000.0,80.4,98.0,-1.6,-0.4,1.09,GOOD
1790983989718,333,1914.0,-107.8418065956972,32000.0,80.4,98.0,-1.6,-0.4,1.09,GOOD
1790983989718,334,2019.0,-105.60281922943166,32000.0,80.4,98.0,-1.6,-0.4,1.09,GOOD
1790983989718,335,2008.0,-87.17627125800232,32000.0,80.4,98.0,-1.6,-0.4,1.09,GOOD
1790983989718,336,1996.0,-55.96620492812294,32000.0,80.4,98.0,-1.6,-0.4,1.09,GOOD
1790983989718,337,1967.0,-25.360718498919404,32000.0,80.4,98.0,-1.6,-0.4,1.09,GOOD
1790983989718,338,2032.0,-6.427119356698917,32000.0,80.4,98.0,-1.6,-0.4,1.09,GOOD
1790983989718,339,1997.0,0.03712467379519113,32000.0,80.4,98.0,-1.6,-0.4,1.09,GOOD
1790983989718,340,1992.0,-3.7026148450221967,32000.0,80.4,98.0,-1.6,-0.4,1.09,GOOD
1790983989718,341,1990.0,-13.461732043686716,32000.0,80.4,98.0,-1.6,-0.4,1.09,GOOD
1790983989718,342,2055.0,-17.325647291532597,32000.0,80.4,98.0,-1.6,-0.4,1.09,GOOD
1790983989718,343,2063.0,-4.557326899228069,32000.0,80.4,98.0,-1.6,-0.4,1.09,GOOD
1790983989718,344,2055.0,19.146419763516935,32000.0,80.4,98.0,-1.6,-0.4,1.09,GOOD
1790983989718,345,2058.0,37.925264926795876,32000.0,80.4,98.0,-1.6,-0.4,1.09,GOOD
1790983989718,346,2003.0,43.95868860825313,32000.0,80.4,98.0,-1.6,-0.4,1.09,GOOD
1790983989718,347,2019.0,39.28974792072592,32000.0,80.4,98.0,-1.6,-0.4,1.09,GOOD
1790983989718,348,2012.0,28.42503569839838,32000.0,80.4,98.0,-1.6,-0.4,1.09,GOOD
1790983989718,349,2001.0,14.0231910281198,32000.0,80.4,98.0,-1.6,-0.4,1.09,GOOD
1790983989718,350,1916.0,-5.4929858474584154,32000.0,80.4,98.0,-1.6,-0.4,1.09,GOOD
1790983989719,351,1928.0,-30.935794091969026,32000.0,80.4,98.0,-1.6,-0.4,1.09,GOOD
1790983989719,352,1928.0,-55.11107393480886,32000.0,80.4,98.0,-1.6,-0.4,1.09,GOOD
1790983989719,353,1916.0,-70.73761522276976,32000.0,80.4,98.0,-1.6,-0.4,1.09,GOOD
1790983989719,354,2014.0,-77.08357012613442,32000.0,80.4,98.0,-1.6,-0.4,1.09,GOOD
1790983989719,355,2009.0,-69.95997253932396,32000.0,80.4,98.0,-1.6,-0.4,1.09,GOOD
1790983989719,356,2013.0,-45.190507426748155,32000.0,80.4,98.0,-1.6,-0.4,1.09,GOOD
1790983989719,357,2120.0,-6.615019990425916,32000.0,80.4,98.0,-1.6,-0.4,1.09,GOOD
1790983989719,358,2108.0,39.073055162636514,32000.0,80.4,98.0,-1.6,-0.4,1.09,GOOD
1790983989719,359,2092.0,78.78532572286922,32000.0,80.4,98.0,-1.6,-0.4,1.09,GOOD
1790983989719,360,2089.0,97.988777990882,32000.0,80.4,98.0,-1.6,-0.4,1.09,GOOD
1790983989719,361,2072.0,97.91883882879476,32000.0,80.4,98.0,-1.6,-0.4,1.09,GOOD
1790983989719,362,2085.0,90.72177041448042,32000.0,80.4,98.0,-1.6,-0.4,1.09,GOOD
1790983989719,363,2082.0,83.31794032677922,32000.0,80.4,98.0,-1.6,-0.4,1.09,GOOD
1790983989719,364,2073.0,74.84766295694814,32000.0,80.4,98.0,-1.6,-0.4,1.09,GOOD
1790983989719,365,1939.0,59.72192235883234,32000.0,80.4,98.0,-1.6,-0.4,1.09,GOOD
1790983989719,366,1958.0,32.219611638625125,32000.0,80.4,98.0,-1.6,-0.4,1.09,GOOD
1790983989719,367,1969.0,-2.251381031971242,32000.0,80.4,98.0,-1.6,-0.4,1.09,GOOD
1790983989719,368,1955.0,-31.27643548832749,32000.0,80.4,98.0,-1.6,-0.4,1.09,GOOD
1790983989719,369,1950.0,-51.49277889299216,32000.0,80.4,98.0,-1.6,-0.4,1.09,GOOD
1790983989719,370,1957.0,-63.523098187326276,32000.0,80.4,98.0,-1.6,-0.4,1.09,GOOD
1790983989719,371,1971.0,-62.76303670312091,32000.0,80.4,98.0,-1.6,-0.4,1.09,GOOD
1790983989719,372,1969.0,-48.79334719466761,32000.0,80.4,98.0,-1.6,-0.4,1.09,GOOD
1790983989719,373,1985.0,-32.45648768251427,32000.0,80.4,98.0,-1.6,-0.4,1.09,GOOD
1790983989719,374,1959.0,-25.58075518599724,32000.0,80.4,98.0,-1.6,-0.4,1.09,GOOD
1790983989719,375,1968.0,-28.819070512340197,32000.0,80.4,98.0,-1.6,-0.4,1.09,GOOD
1790983989794,376,1974.0,-32.47148244674993,32000.0,80.4,98.0,-1.7,-0.3,1.08,GOOD
1790983989794,377,2068.0,-25.577290036260848,32000.0,80.4,98.0,-1.7,-0.3,1.08,GOOD
1790983989794,378,2059.0,-4.575744194528447,32000.0,80.4,98.0,-1.7,-0.3,1.08,GOOD
1790983989794,379,2056.0,22.42975924730234,32000.0,80.4,98.0,-1.7,-0.3,1.08,GOOD
1790983989794,380,2073.0,45.18056084221297,32000.0,80.4,98.0,-1.7,-0.3,1.08,GOOD
1790983989794,381,2377.0,74.90434583350795,32000.0,80.4,98.0,-1.7,-0.3,1.08,GOOD
1790983989794,382,2406.0,140.39327800117434,32000.0,80.4,98.0,-1.7,-0.3,1.08,GOOD
1790983989794,383,2427.0,241.15856895200005,32000.0,80.4,98.0,-1.7,-0.3,1.08,GOOD
1790983989794,384,2279.0,333.07097188420227,32000.0,80.4,98.0,-1.7,-0.3,1.08,GOOD
1790983989794,385,2253.0,372.4904316233908,32000.0,80.4,98.0,-1.7,-0.3,1.08,GOOD
1790983989794,386,2226.0,351.7896903088613,32000.0,80.4,98.0,-1.7,-0.3,1.08,GOOD
1790983989794,387,2187.0,291.19673942329206,32000.0,80.4,98.0,-1.7,-0.3,1.08,GOOD
1790983989794,388,1655.0,195.10624345639079,32000.0,80.4,98.0,-1.7,-0.3,1.08,GOOD
1790983989794,389,1664.0,43.585849797547084,32000.0,80.4,98.0,-1.7,-0.3,1.08,GOOD
1790983989794,390,1658.0,-142.19163293252123,32000.0,80.4,98.0,-1.7,-0.3,1.08,GOOD
1790983989794,391,1641.0,-295.79825430326275,32000.0,80.4,98.0,-1.7,-0.3,1.08,GOOD
1790983989794,392,1954.0,-371.7047644149425,32000.0,80.4,98.0,-1.7,-0.3,1.08,GOOD
1790983989794,393,1975.0,-352.7050471948452,32000.0,80.4,98.0,-1.7,-0.3,1.08,GOOD
1790983989794,394,2002.0,-248.79424720126977,32000.0,80.4,98.0,-1.7,-0.3,1.08,GOOD
1790983989794,395,2007.0,-108.74293594293067,32000.0,80.4,98.0,-1.7,-0.3,1.08,GOOD
1790983989794,396,2065.0,8.92517994952788,32000.0,80.4,98.0,-1.7,-0.3,1.08,GOOD
1790983989794,397,2052.0,68.42250172909118,32000.0,80.4,98.0,-1.7,-0.3,1.08,GOOD
1790983989794,398,2058.0,69.40125697604822,32000.0,80.4,98.0,-1.7,-0.3,1.08,GOOD
1790983989794,399,2078.0,45.74382302283311,32000.0,80.4,98.0,-1.7,-0.3,1.08,GOOD
1790983989794,400,2091.0,39.05035496127688,32000.0,80.4,98.0,-1.7,-0.3,1.08,GOOD
1790983989876,401,2081.0,59.35471639792887,32000.0,80.4,98.0,-1.7,-0.2,1.08,GOOD
1790983989876,402,2069.0,80.19770037613353,32000.0,80.4,98.0,-1.7,-0.2,1.08,GOOD
1790983989876,403,2088.0,78.25929882259243,32000.0,80.4,98.0,-1.7,-0.2,1.08,GOOD
1790983989876,404,2039.0,61.58432865574652,32000.0,80.4,98.0,-1.7,-0.2,1.08,GOOD
1790983989876,405,2051.0,50.83602275692693,32000.0,80.4,98.0,-1.7,-0.2,1.08,GOOD
1790983989876,406,2032.0,50.19046356844845,32000.0,80.4,98.0,-1.7,-0.2,1.08,GOOD
1790983989876,407,2021.0,45.57214802419344,32000.0,80.4,98.0,-1.7,-0.2,1.08,GOOD
1790983989876,408,2009.0,26.150839024848672,32000.0,80.4,98.0,-1.7,-0.2,1.08,GOOD
1790983989876,409,2022.0,2.1246226465451077,32000.0,80.4,98.0,-1.7,-0.2,1.08,GOOD
1790983989876,410,2026.0,-6.565096277846293,32000.0,80.4,98.0,-1.7,-0.2,1.08,GOOD
1790983989876,411,2007.0,2.6452096165507952,32000.0,80.4,98.0,-1.7,-0.2,1.08,GOOD
1790983989876,412,2050.0,12.864739040042538,32000.0,80.4,98.0,-1.7,-0.2,1.08,GOOD
1790983989876,413,2048.0,13.90561498991349,32000.0,80.4,98.0,-1.7,-0.2,1.08,GOOD
1790983989876,414,2070.0,14.405670290090551,32000.0,80.4,98.0,-1.7,-0.2,1.08,GOOD
1790983989876,415,2070.0,26.207919117806433,32000.0,80.4,98.0,-1.7,-0.2,1.08,GOOD
1790983989876,416,2168.0,50.74832058439131,32000.0,80.4,98.0,-1.7,-0.2,1.08,GOOD
1790983989876,417,2154.0,81.09916246756768,32000.0,80.4,98.0,-1.7,-0.2,1.08,GOOD
1790983989876,418,2161.0,107.56247152583848,32000.0,80.4,98.0,-1.7,-0.2,1.08,GOOD
1790983989876,419,2184.0,126.35846616835045,32000.0,80.4,98.0,-1.7,-0.2,1.08,GOOD
1790983989876,420,2230.0,144.9011360464819,32000.0,80.4,98.0,-1.7,-0.2,1.08,GOOD
1790983989876,421,2215.0,167.8538881476801,32000.0,80.4,98.0,-1.7,-0.2,1.08,GOOD
1790983989876,422,2206.0,185.2749117987683,32000.0,80.4,98.0,-1.7,-0.2,1.08,GOOD
1790983989876,423,2224.0,187.53179854507505,32000.0,80.4,98.0,-1.7,-0.2,1.08,GOOD
1790983989876,424,2213.0,181.2344966155652,32000.0,80.4,98.0,-1.7,-0.2,1.08,GOOD
1790983989876,425,2221.0,178.24627113872742,32000.0,80.4,98.0,-1.7,-0.2,1.08,GOOD
1790983990115,426,2209.0,179.35259122163797,32000.0,80.4,98.0,-1.7,-0.2,1.07,GOOD
1790983990115,427,2202.0,176.56341939964105,32000.0,80.4,98.0,-1.7,-0.2,1.07,GOOD
1790983990115,428,2168.0,164.79342939812443,32000.0,80.4,98.0,-1.7,-0.2,1.07,GOOD
1790983990115,429,2225.0,149.491567063496,32000.0,80.4,98.0,-1.7,-0.2,1.07,GOOD
1790983990115,430,2227.0,143.0020433155908,32000.0,80.4,98.0,-1.7,-0.2,1.07,GOOD
1790983990115,431,2213.0,148.62706043972457,32000.0,80.4,98.0,-1.7,-0.2,1.07,GOOD
1790983990115,432,2226.0,156.27323779776225,32000.0,80.4,98.0,-1.7,-0.2,1.07,GOOD
1790983990115,433,2233.0,159.26515895748332,32000.0,80.4,98.0,-1.7,-0.2,1.07,GOOD
1790983990115,434,2249.0,161.50345728083363,32000.0,80.4,98.0,-1.7,-0.2,1.07,GOOD
1790983990115,435,2247.0,166.85586928360618,32000.0,80.4,98.0,-1.7,-0.2,1.07,GOOD
1790983990115,436,2359.0,176.7567820094888,32000.0,80.4,98.0,-1.7,-0.2,1.07,GOOD
1790983990115,437,2345.0,195.83437476893175,32000.0,80.4,98.0,-1.7,-0.2,1.07,GOOD
1790983990115,438,2355.0,224.1777342660161,32000.0,80.4,98.0,-1.7,-0.2,1.07,GOOD
1790983990115,439,2373.0,252.93293812418716,32000.0,80.4,98.0,-1.7,-0.2,1.07,GOOD
1790983990115,440,2329.0,272.3631973820842,32000.0,80.4,98.0,-1.7,-0.2,1.07,GOOD
1790983990115,441,2301.0,273.18906558727633,32000.0,80.4,98.0,-1.7,-0.2,1.07,GOOD
1790983990115,442,2287.0,251.60022440041283,32000.0,80.4,98.0,-1.7,-0.2,1.07,GOOD
1790983990115,443,2287.0,217.68222605900266,32000.0,80.4,98.0,-1.7,-0.2,1.07,GOOD
1790983990115,444,2145.0,182.39966511172346,32000.0,80.4,98.0,-1.7,-0.2,1.07,GOOD
1790983990115,445,2152.0,142.33714618244085,32000.0,80.4,98.0,-1.7,-0.2,1.07,GOOD
1790983990115,446,2127.0,94.21197009823383,32000.0,80.4,98.0,-1.7,-0.2,1.07,GOOD
1790983990115,447,2111.0,46.97872114767206,32000.0,80.4,98.0,-1.7,-0.2,1.07,GOOD
1790983990115,448,1964.0,4.9246433929387115,32000.0,80.4,98.0,-1.7,-0.2,1.07,GOOD
1790983990115,449,1995.0,-38.80738452750474,32000.0,80.4,98.0,-1.7,-0.2,1.07,GOOD
1790983990115,450,1986.0,-82.99573792666287,32000.0,80.4,98.0,-1.7,-0.2,1.07,GOOD
1790983990115,451,1962.0,-117.22671330583952,32000.0,80.4,98.0,-1.7,-0.2,1.07,GOOD
1790983990115,452,1881.0,-142.2492439052769,32000.0,80.4,98.0,-1.7,-0.2,1.07,GOOD
1790983990115,453,1895.0,-167.2574456525341,32000.0,80.4,98.0,-1.7,-0.2,1.07,GOOD
1790983990115,454,1916.0,-190.36696360101016,32000.0,80.4,98.0,-1.7,-0.2,1.07,GOOD
1790983990115,455,1906.0,-202.0553130749148,32000.0,80.4,98.0,-1.7,-0.2,1.07,GOOD
1790983990115,456,1990.0,-199.26613081773888,32000.0,80.4,98.0,-1.7,-0.2,1.07,GOOD
1790983990115,457,1965.0,-183.06794830466595,32000.0,80.4,98.0,-1.7,-0.2,1.07,GOOD
1790983990115,458,1991.0,-156.76906620066976,32000.0,80.4,98.0,-1.7,-0.2,1.07,GOOD
1790983990115,459,2030.0,-126.19221638356622,32000.0,80.4,98.0,-1.7,-0.2,1.07,GOOD
1790983990115,460,2026.0,-96.38708197856104,32000.0,80.4,98.0,-1.7,-0.2,1.07,GOOD
1790983990115,461,1991.0,-75.65525551497916,32000.0,80.4,98.0,-1.7,-0.2,1.07,GOOD
1790983990115,462,1986.0,-72.16026308289396,32000.0,80.4,98.0,-1.7,-0.2,1.07,GOOD
1790983990115,463,1953.0,-83.37239307896613,32000.0,80.4,98.0,-1.7,-0.2,1.07,GOOD
1790983990115,464,1984.0,-98.90476368249563,32000.0,80.4,98.0,-1.7,-0.2,1.07,GOOD
1790983990115,465,1981.0,-110.09209711188751,32000.0,80.4,98.0,-1.7,-0.2,1.07,GOOD
1790983990115,466,1965.0,-115.27364251095607,32000.0,80.4,98.0,-1.7,-0.2,1.07,GOOD
1790983990115,467,1884.0,-120.66600151798617,32000.0,80.4,98.0,-1.7,-0.2,1.07,GOOD
1790983990115,468,1906.0,-132.97619472633687,32000.0,80.4,98.0,-1.7,-0.2,1.07,GOOD
1790983990115,469,1927.0,-148.86545397151883,32000.0,80.4,98.0,-1.7,-0.2,1.07,GOOD
1790983990115,470,1922.0,-159.77098649801997,32000.0,80.4,98.0,-1.7,-0.2,1.07,GOOD
1790983990115,471,1934.0,-163.47607982776637,32000.0,80.4,98.0,-1.7,-0.2,1.07,GOOD
1790983990115,472,1913.0,-161.22912070070618,32000.0,80.4,98.0,-1.7,-0.2,1.07,GOOD
1790983990115,473,1927.0,-153.14696060393027,32000.0,80.4,98.0,-1.7,-0.2,1.07,GOOD
1790983990115,474,1939.0,-141.25150066188675,32000.0,80.4,98.0,-1.7,-0.2,1.07,GOOD
1790983990115,475,2044.0,-126.89298791570242,32000.0,80.4,98.0,-1.7,-0.2,1.07,GOOD
1790983990195,476,2004.0,-107.19423227238111,32000.0,80.4,98.0,-1.6,-0.2,1.08,GOOD
1790983990195,477,1978.0,-83.79238624437833,32000.0,80.4,98.0,-1.6,-0.2,1.08,GOOD
1790983990195,478,1983.0,-64.92918224457651,32000.0,80.4,98.0,-1.6,-0.2,1.08,GOOD
1790983990195,479,1993.0,-55.124935119983284,32000.0,80.4,98.0,-1.6,-0.2,1.08,GOOD
1790983990195,480,1994.0,-54.943215964874426,32000.0,80.4,98.0,-1.6,-0.2,1.08,GOOD
1790983990195,481,1977.0,-63.7724583599392,32000.0,80.4,98.0,-1.6,-0.2,1.08,GOOD
1790983990195,482,1981.0,-75.35361663324173,32000.0,80.4,98.0,-1.6,-0.2,1.08,GOOD
1790983990195,483,1962.0,-80.10760774211155,32000.0,80.4,98.0,-1.6,-0.2,1.08,GOOD
1790983990195,484,1977.0,-76.46741360540125,32000.0,80.4,98.0,-1.6,-0.2,1.08,GOOD
1790983990195,485,1972.0,-72.82547435425028,32000.0,80.4,98.0,-1.6,-0.2,1.08,GOOD
1790983990195,486,1956.0,-76.61834157196469,32000.0,80.4,98.0,-1.6,-0.2,1.08,GOOD
1790983990195,487,1931.0,-86.53800926489097,32000.0,80.4,98.0,-1.6,-0.2,1.08,GOOD
1790983990195,488,1950.0,-94.85351171695392,32000.0,80.4,98.0,-1.6,-0.2,1.08,GOOD
1790983990195,489,1973.0,-95.33061124866961,32000.0,80.4,98.0,-1.6,-0.2,1.08,GOOD
1790983990195,490,1965.0,-89.86886947808173,32000.0,80.4,98.0,-1.6,-0.2,1.08,GOOD
1790983990195,491,1918.0,-87.28412031272671,32000.0,80.4,98.0,-1.6,-0.2,1.08,GOOD
1790983990195,492,1913.0,-93.04746937852772,32000.0,80.4,98.0,-1.6,-0.2,1.08,GOOD
1790983990195,493,1930.0,-101.85245309105403,32000.0,80.4,98.0,-1.6,-0.2,1.08,GOOD
1790983990195,494,1930.0,-106.03966635679242,32000.0,80.4,98.0,-1.6,-0.2,1.08,GOOD
1790983990195,495,2041.0,-102.62078229469878,32000.0,80.4,98.0,-1.6,-0.2,1.08,GOOD
1790983990195,496,2020.0,-87.22027653172597,32000.0,80.4,98.0,-1.6,-0.2,1.08,GOOD
1790983990195,497,2027.0,-58.11283530648648,32000.0,80.4,98.0,-1.6,-0.2,1.08,GOOD
1790983990195,498,2038.0,-23.00873315740998,32000.0,80.4,98.0,-1.6,-0.2,1.08,GOOD
1790983990195,499,2063.0,7.37636720095212,32000.0,80.4,98.0,-1.6,-0.2,1.08,GOOD
1790983990195,500,2062.0,24.86763204549787,32000.0,80.4,98.0,-1.6,-0.2,1.08,GOOD
1790983990297,501,2042.0,26.942108288261345,32000.0,80.4,98.0,-1.6,-0.3,1.08,GOOD
1790983990297,502,2050.0,20.33065197726319,32000.0,80.4,98.0,-1.6,-0.3,1.08,GOOD
1790983990297,503,2013.0,15.220128140264595,32000.0,80.4,98.0,-1.6,-0.3,1.08,GOOD
1790983990297,504,2027.0,12.767070717671976,32000.0,80.4,98.0,-1.6,-0.3,1.08,GOOD
1790983990297,505,2018.0,6.233462534024288,32000.0,80.4,98.0,-1.6,-0.3,1.08,GOOD
1790983990297,506,2007.0,-6.762516136762828,32000.0,80.4,98.0,-1.6,-0.3,1.08,GOOD
1790983990297,507,1922.0,-23.340657504076166,32000.0,80.4,98.0,-1.6,-0.3,1.08,GOOD
1790983990297,508,1951.0,-41.454562205919565,32000.0,80.4,98.0,-1.6,-0.3,1.08,GOOD
1790983990297,509,1957.0,-58.30396697761847,32000.0,80.4,98.0,-1.6,-0.3,1.08,GOOD
1790983990297,510,1943.0,-71.51605925508764,32000.0,80.4,98.0,-1.6,-0.3,1.08,GOOD
1790983990297,511,1922.0,-83.1113603667446,32000.0,80.4,98.0,-1.6,-0.3,1.08,GOOD
1790983990297,512,1927.0,-92.80081987777113,32000.0,80.4,98.0,-1.6,-0.3,1.08,GOOD
1790983990297,513,1938.0,-94.88969340479815,32000.0,80.4,98.0,-1.6,-0.3,1.08,GOOD
1790983990297,514,1935.0,-88.5500602418818,32000.0,80.4,98.0,-1.6,-0.3,1.08,GOOD
1790983990297,515,2031.0,-78.48060574539133,32000.0,80.4,98.0,-1.6,-0.3,1.08,GOOD
1790983990297,516,2022.0,-63.059033283104796,32000.0,80.4,98.0,-1.6,-0.3,1.08,GOOD
1790983990297,517,2030.0,-38.03261439584826,32000.0,80.4,98.0,-1.6,-0.3,1.08,GOOD
1790983990297,518,2045.0,-6.9271195835612485,32000.0,80.4,98.0,-1.6,-0.3,1.08,GOOD
1790983990297,519,2084.0,22.60383989274527,32000.0,80.4,98.0,-1.6,-0.3,1.08,GOOD
1790983990297,520,2067.0,43.577358651487216,32000.0,80.4,98.0,-1.6,-0.3,1.08,GOOD
1790983990297,521,2055.0,51.226950322050804,32000.0,80.4,98.0,-1.6,-0.3,1.08,GOOD
1790983990297,522,2069.0,48.67901757595497,32000.0,80.4,98.0,-1.6,-0.3,1.08,GOOD
1790983990297,523,2008.0,44.04560007032472,32000.0,80.4,98.0,-1.6,-0.3,1.08,GOOD
1790983990297,524,2015.0,37.13905439793415,32000.0,80.4,98.0,-1.6,-0.3,1.08,GOOD
1790983990297,525,1999.0,22.033357108838235,32000.0,80.4,98.0,-1.6,-0.3,1.08,GOOD
1790983990390,526,1992.0,-0.014642178349275614,32000.0,80.4,98.0,-1.7,-0.3,1.08,GOOD
1790983990390,527,1939.0,-22.038562269605123,32000.0,80.4,98.0,-1.7,-0.3,1.08,GOOD
1790983990390,528,1957.0,-39.30764041113801,32000.0,80.4,98.0,-1.7,-0.3,1.08,GOOD
1790983990390,529,1955.0,-50.46578152855256,32000.0,80.4,98.0,-1.7,-0.3,1.08,GOOD
1790983990390,530,1934.0,-57.870974752835366,32000.0,80.4,98.0,-1.7,-0.3,1.08,GOOD
1790983990390,531,1953.0,-65.45528264201127,32000.0,80.4,98.0,-1.7,-0.3,1.08,GOOD
1790983990390,532,1966.0,-70.29513376192232,32000.0,80.4,98.0,-1.7,-0.3,1.08,GOOD
1790983990390,533,1986.0,-64.73894513269352,32000.0,80.4,98.0,-1.7,-0.3,1.08,GOOD
1790983990390,534,1979.0,-48.98707977025635,32000.0,80.4,98.0,-1.7,-0.3,1.08,GOOD
1790983990390,535,2028.0,-31.10408615159098,32000.0,80.4,98.0,-1.7,-0.3,1.08,GOOD
1790983990390,536,2007.0,-16.053586559527897,32000.0,80.4,98.0,-1.7,-0.3,1.08,GOOD
1790983990390,537,2018.0,-3.9101924019851424,32000.0,80.4,98.0,-1.7,-0.3,1.08,GOOD
1790983990390,538,2023.0,6.0470348972348535,32000.0,80.4,98.0,-1.7,-0.3,1.08,GOOD
1790983990390,539,2100.0,16.961173371465506,32000.0,80.4,98.0,-1.7,-0.3,1.08,GOOD
1790983990390,540,2065.0,32.50541937521343,32000.0,80.4,98.0,-1.7,-0.3,1.08,GOOD
1790983990390,541,2055.0,48.60756339094729,32000.0,80.4,98.0,-1.7,-0.3,1.08,GOOD
1790983990390,542,2064.0,57.8284674864366,32000.0,80.4,98.0,-1.7,-0.3,1.08,GOOD
1790983990390,543,2117.0,62.48766543131549,32000.0,80.4,98.0,-1.7,-0.3,1.08,GOOD
1790983990390,544,2120.0,70.84483041045675,32000.0,80.4,98.0,-1.7,-0.3,1.08,GOOD
1790983990390,545,2105.0,83.10451950817662,32000.0,80.4,98.0,-1.7,-0.3,1.08,GOOD
1790983990390,546,2103.0,92.28854810423903,32000.0,80.4,98.0,-1.7,-0.3,1.08,GOOD
1790983990390,547,1968.0,90.42750210424049,32000.0,80.4,98.0,-1.7,-0.3,1.08,GOOD
1790983990390,548,1987.0,68.81906404262682,32000.0,80.4,98.0,-1.7,-0.3,1.08,GOOD
1790983990390,549,1978.0,28.833410308502593,32000.0,80.4,98.0,-1.7,-0.3,1.08,GOOD
1790983990390,550,1964.0,-14.350267228809656,32000.0,80.4,98.0,-1.7,-0.3,1.08,GOOD
1790983990523,551,1913.0,-48.447708831594085,32000.0,80.4,98.0,-1.6,-0.3,1.08,GOOD
1790983990523,552,1930.0,-70.32233736128089,32000.0,80.4,98.0,-1.6,-0.3,1.08,GOOD
1790983990523,553,1947.0,-79.00795382003857,32000.0,80.4,98.0,-1.6,-0.3,1.08,GOOD
1790983990523,554,1935.0,-76.90232693446501,32000.0,80.4,98.0,-1.6,-0.3,1.08,GOOD
1790983990523,555,2013.0,-69.69738616418881,32000.0,80.4,98.0,-1.6,-0.3,1.08,GOOD
1790983990523,556,1961.0,-58.31161914405541,32000.0,80.4,98.0,-1.6,-0.3,1.08,GOOD
1790983990523,557,1974.0,-42.995313838443764,32000.0,80.4,98.0,-1.6,-0.3,1.08,GOOD
1790983990523,558,1977.0,-28.66001855178,32000.0,80.4,98.0,-1.6,-0.3,1.08,GOOD
1790983990523,559,2063.0,-16.772154384081336,32000.0,80.4,98.0,-1.6,-0.3,1.08,GOOD
1790983990523,560,2037.0,-3.4459720299076775,32000.0,80.4,98.0,-1.6,-0.3,1.08,GOOD
1790983990523,561,2037.0,11.88781876282832,32000.0,80.4,98.0,-1.6,-0.3,1.08,GOOD
1790983990523,562,2054.0,26.74726705509957,32000.0,80.4,98.0,-1.6,-0.3,1.08,GOOD
1790983990523,563,2103.0,42.98201946856969,32000.0,80.4,98.0,-1.6,-0.3,1.08,GOOD
1790983990523,564,2105.0,62.2730074815668,32000.0,80.4,98.0,-1.6,-0.3,1.08,GOOD
1790983990523,565,2101.0,79.1414859902714,32000.0,80.4,98.0,-1.6,-0.3,1.08,GOOD
1790983990523,566,2116.0,88.74028818535936,32000.0,80.4,98.0,-1.6,-0.3,1.08,GOOD
1790983990523,567,2720.0,118.9490928361236,32000.0,80.4,98.0,-1.6,-0.3,1.08,GOOD
1790983990523,568,2728.0,227.79263361901786,32000.0,80.4,98.0,-1.6,-0.3,1.08,GOOD
1790983990523,569,2738.0,415.0460903112535,32000.0,80.4,98.0,-1.6,-0.3,1.08,GOOD
1790983990523,570,2729.0,599.6194582669682,32000.0,80.4,98.0,-1.6,-0.3,1.08,GOOD
1790983990523,571,1975.0,684.5224001859885,32000.0,80.4,98.0,-1.6,-0.3,1.08,GOOD
1790983990523,572,1945.0,592.717256101891,32000.0,80.4,98.0,-1.6,-0.3,1.08,GOOD
1790983990523,573,1905.0,337.26419828443954,32000.0,80.4,98.0,-1.6,-0.3,1.08,GOOD
1790983990523,574,1752.0,34.3875108129983,32000.0,80.4,98.0,-1.6,-0.3,1.08,GOOD
1790983990523,575,1754.0,-206.71147194602182,32000.0,80.4,98.0,-1.6,-0.3,1.08,GOOD
1790983990645,576,1774.0,-335.2644706709295,32000.0,80.4,98.0,-1.6,-0.3,1.08,GOOD
1790983990645,577,1760.0,-350.8889899145064,32000.0,80.4,98.0,-1.6,-0.3,1.08,GOOD
1790983990645,578,2078.0,-292.39118504153225,32000.0,80.4,98.0,-1.6,-0.3,1.08,GOOD
1790983990645,579,2062.0,-199.93545883611242,32000.0,80.4,98.0,-1.6,-0.3,1.08,GOOD
1790983990645,580,2085.0,-101.45301693264106,32000.0,80.4,98.0,-1.6,-0.3,1.08,GOOD
1790983990645,581,2113.0,-14.99231010724617,32000.0,80.4,98.0,-1.6,-0.3,1.08,GOOD
1790983990645,582,2049.0,53.205004034944736,32000.0,80.4,98.0,-1.6,-0.3,1.08,GOOD
1790983990645,583,2036.0,88.58509181376103,32000.0,80.4,98.0,-1.6,-0.3,1.08,GOOD
1790983990645,584,2025.0,73.35835621421091,32000.0,80.4,98.0,-1.6,-0.3,1.08,GOOD
1790983990645,585,2042.0,21.56985154744568,32000.0,80.4,98.0,-1.6,-0.3,1.08,GOOD
1790983990645,586,2062.0,-21.638664461042566,32000.0,80.4,98.0,-1.6,-0.3,1.08,GOOD
1790983990645,587,2073.0,-22.468230546651952,32000.0,80.4,98.0,-1.6,-0.3,1.08,GOOD
1790983990645,588,2056.0,8.266506816918612,32000.0,80.4,98.0,-1.6,-0.3,1.08,GOOD
1790983990645,589,2043.0,31.434757992839938,32000.0,80.4,98.0,-1.6,-0.3,1.08,GOOD
1790983990645,590,1981.0,23.59233953700339,32000.0,80.4,98.0,-1.6,-0.3,1.08,GOOD
1790983990645,591,2023.0,-3.313877542552498,32000.0,80.4,98.0,-1.6,-0.3,1.08,GOOD
1790983990645,592,2023.0,-21.486534253659073,32000.0,80.4,98.0,-1.6,-0.3,1.08,GOOD
1790983990645,593,1996.0,-22.613342608428933,32000.0,80.4,98.0,-1.6,-0.3,1.08,GOOD
1790983990645,594,2085.0,-20.44461456728331,32000.0,80.4,98.0,-1.6,-0.3,1.08,GOOD
1790983990645,595,2082.0,-17.956198809900684,32000.0,80.4,98.0,-1.6,-0.3,1.08,GOOD
1790983990645,596,2105.0,-2.3753067474449843,32000.0,80.4,98.0,-1.6,-0.3,1.08,GOOD
1790983990645,597,2094.0,29.18779717058119,32000.0,80.4,98.0,-1.6,-0.3,1.08,GOOD
1790983990645,598,2159.0,63.079156322909434,32000.0,80.4,98.0,-1.6,-0.3,1.08,GOOD
1790983990645,599,2140.0,84.81303922100699,32000.0,80.4,98.0,-1.6,-0.3,1.08,GOOD
1790983990645,600,2150.0,91.64845020466971,32000.0,80.4,98.0,-1.6,-0.3,1.08,GOOD
1790983990747,601,2174.0,93.85760752103464,32000.0,74.4,98.0,-1.6,-0.3,1.08,GOOD
1790983990747,602,2156.0,103.19254598814489,32000.0,74.4,98.0,-1.6,-0.3,1.08,GOOD
1790983990747,603,2147.0,115.72601198655194,32000.0,74.4,98.0,-1.6,-0.3,1.08,GOOD
1790983990747,604,2137.0,116.72112958314284,32000.0,74.4,98.0,-1.6,-0.3,1.08,GOOD
1790983990747,605,2159.0,103.40434974958828,32000.0,74.4,98.0,-1.6,-0.3,1.08,GOOD
1790983990747,606,2155.0,89.87047225404365,32000.0,74.4,98.0,-1.6,-0.3,1.08,GOOD
1790983990747,607,2173.0,88.92944035044324,32000.0,74.4,98.0,-1.6,-0.3,1.08,GOOD
1790983990747,608,2163.0,98.16326312016884,32000.0,74.4,98.0,-1.6,-0.3,1.08,GOOD
1790983990747,609,2148.0,105.06390319659482,32000.0,74.4,98.0,-1.6,-0.3,1.08,GOOD
1790983990747,610,2176.0,102.79668316726017,32000.0,74.4,98.0,-1.6,-0.3,1.08,GOOD
1790983990747,611,2199.0,98.94200590724793,32000.0,74.4,98.0,-1.6,-0.3,1.08,GOOD
1790983990747,612,2204.0,104.1213957935459,32000.0,74.4,98.0,-1.6,-0.3,1.08,GOOD
1790983990747,613,2180.0,116.04940289868253,32000.0,74.4,98.0,-1.6,-0.3,1.08,GOOD
1790983990747,614,2243.0,125.57412549353074,32000.0,74.4,98.0,-1.6,-0.3,1.08,GOOD
1790983990747,615,2250.0,133.22851403759046,32000.0,74.4,98.0,-1.6,-0.3,1.08,GOOD
1790983990747,616,2265.0,145.44275328997472,32000.0,74.4,98.0,-1.6,-0.3,1.08,GOOD
1790983990747,617,2274.0,161.935304554431,32000.0,74.4,98.0,-1.6,-0.3,1.08,GOOD
1790983990747,618,2401.0,182.10700432111526,32000.0,74.4,98.0,-1.6,-0.3,1.08,GOOD
1790983990747,619,2382.0,211.6216711944059,32000.0,74.4,98.0,-1.6,-0.3,1.08,GOOD
1790983990747,620,2395.0,248.5525004477443,32000.0,74.4,98.0,-1.6,-0.3,1.08,GOOD
1790983990747,621,2418.0,280.7964218138245,32000.0,74.4,98.0,-1.6,-0.3,1.08,GOOD
1790983990747,622,2381.0,300.0056286324053,32000.0,74.4,98.0,-1.6,-0.3,1.08,GOOD
1790983990747,623,2364.0,302.1022516059306,32000.0,74.4,98.0,-1.6,-0.3,1.08,GOOD
1790983990747,624,2343.0,285.96764741726906,32000.0,74.4,98.0,-1.6,-0.3,1.08,GOOD
1790983990747,625,2353.0,258.7303932143372,32000.0,74.4,98.0,-1.6,-0.3,1.08,GOOD
1790983990832,626,2178.0,225.99457237190657,32000.0,74.4,98.0,-1.7,-0.2,1.08,GOOD
1790983990832,627,2152.0,179.87731204939968,32000.0,74.4,98.0,-1.7,-0.2,1.08,GOOD
1790983990832,628,2119.0,116.16521892272283,32000.0,74.4,98.0,-1.7,-0.2,1.08,GOOD
1790983990832,629,2093.0,48.33319876684198,32000.0,74.4,98.0,-1.7,-0.2,1.08,GOOD
1790983990832,630,2009.0,-10.899395116420699,32000.0,74.4,98.0,-1.7,-0.2,1.08,GOOD
1790983990832,631,2041.0,-59.21183373218149,32000.0,74.4,98.0,-1.7,-0.2,1.08,GOOD
1790983990832,632,2047.0,-92.10489910120984,32000.0,74.4,98.0,-1.7,-0.2,1.08,GOOD
1790983990832,633,2019.0,-104.93388464906779,32000.0,74.4,98.0,-1.7,-0.2,1.08,GOOD
1790983990832,634,1933.0,-108.58731205839779,32000.0,74.4,98.0,-1.7,-0.2,1.08,GOOD
1790983990832,635,1935.0,-122.24686100283043,32000.0,74.4,98.0,-1.7,-0.2,1.08,GOOD
1790983990832,636,1954.0,-148.75282136458168,32000.0,74.4,98.0,-1.7,-0.2,1.08,GOOD
1790983990832,637,1945.0,-173.58046015685224,32000.0,74.4,98.0,-1.7,-0.2,1.08,GOOD
1790983990832,638,1999.0,-183.93638497533155,32000.0,74.4,98.0,-1.7,-0.2,1.08,GOOD
1790983990832,639,1968.0,-176.8818645876739,32000.0,74.4,98.0,-1.7,-0.2,1.08,GOOD
1790983990832,640,1964.0,-159.66058388018297,32000.0,74.4,98.0,-1.7,-0.2,1.08,GOOD
1790983990832,641,1978.0,-144.13327105747544,32000.0,74.4,98.0,-1.7,-0.2,1.08,GOOD
1790983990832,642,2028.0,-134.05230474047733,32000.0,74.4,98.0,-1.7,-0.2,1.08,GOOD
1790983990832,643,1993.0,-125.42345954848557,32000.0,74.4,98.0,-1.7,-0.2,1.08,GOOD
1790983990832,644,1971.0,-118.39364400711253,32000.0,74.4,98.0,-1.7,-0.2,1.08,GOOD
1790983990832,645,1982.0,-116.46581975380676,32000.0,74.4,98.0,-1.7,-0.2,1.08,GOOD
1790983990832,646,1987.0,-118.04308022976262,32000.0,74.4,98.0,-1.7,-0.2,1.08,GOOD
1790983990832,647,1991.0,-119.73654179297952,32000.0,74.4,98.0,-1.7,-0.2,1.08,GOOD
1790983990832,648,1969.0,-121.93950282398272,32000.0,74.4,98.0,-1.7,-0.2,1.08,GOOD
1790983990832,649,1966.0,-125.58049375065058,32000.0,74.4,98.0,-1.7,-0.2,1.08,GOOD
1790983990832,650,1934.0,-129.68124537855203,32000.0,74.4,98.0,-1.7,-0.2,1.08,GOOD
1790983990929,651,1965.0,-133.81460656196614,32000.0,74.4,98.0,-1.7,-0.2,1.08,GOOD
1790983990929,652,1970.0,-137.60697351162426,32000.0,74.4,98.0,-1.7,-0.2,1.08,GOOD
1790983990929,653,1948.0,-140.16710314256176,32000.0,74.4,98.0,-1.7,-0.2,1.08,GOOD
1790983990929,654,1859.0,-144.90139926703816,32000.0,74.4,98.0,-1.7,-0.2,1.08,GOOD
1790983990929,655,1862.0,-158.34877578356281,32000.0,74.4,98.0,-1.7,-0.2,1.08,GOOD
1790983990929,656,1885.0,-179.46688765260632,32000.0,74.4,98.0,-1.7,-0.2,1.08,GOOD
1790983990929,657,1878.0,-199.39920210054478,32000.0,74.4,98.0,-1.7,-0.2,1.08,GOOD
1790983990929,658,1941.0,-209.72340802479715,32000.0,74.4,98.0,-1.7,-0.2,1.08,GOOD
1790983990929,659,1921.0,-203.1337236067796,32000.0,74.4,98.0,-1.7,-0.2,1.08,GOOD
1790983990929,660,1938.0,-178.79593541800227,32000.0,74.4,98.0,-1.7,-0.2,1.08,GOOD
1790983990929,661,1945.0,-147.79764348708468,32000.0,74.4,98.0,-1.7,-0.2,1.08,GOOD
1790983990929,662,2034.0,-121.5023073860891,32000.0,74.4,98.0,-1.7,-0.2,1.08,GOOD
1790983990929,663,1995.0,-101.01097781630786,32000.0,74.4,98.0,-1.7,-0.2,1.08,GOOD
1790983990929,664,1981.0,-84.46748713874726,32000.0,74.4,98.0,-1.7,-0.2,1.08,GOOD
1790983990929,665,1990.0,-72.34346824141917,32000.0,74.4,98.0,-1.7,-0.2,1.08,GOOD
1790983990929,666,2042.0,-62.289911898071814,32000.0,74.4,98.0,-1.7,-0.2,1.08,GOOD
1790983990929,667,2033.0,-51.888936476408375,32000.0,74.4,98.0,-1.7,-0.2,1.08,GOOD
1790983990929,668,2010.0,-44.74934440303636,32000.0,74.4,98.0,-1.7,-0.2,1.08,GOOD
1790983990929,669,2007.0,-43.92394510261168,32000.0,74.4,98.0,-1.7,-0.2,1.08,GOOD
1790983990929,670,1999.0,-45.02327203129987,32000.0,74.4,98.0,-1.7,-0.2,1.08,GOOD
1790983990929,671,2027.0,-43.55720826831871,32000.0,74.4,98.0,-1.7,-0.2,1.08,GOOD
1790983990929,672,2014.0,-42.03281257251888,32000.0,74.4,98.0,-1.7,-0.2,1.08,GOOD
1790983990929,673,2004.0,-45.16506238234428,32000.0,74.4,98.0,-1.7,-0.2,1.08,GOOD
1790983990929,674,1958.0,-52.969554769527164,32000.0,74.4,98.0,-1.7,-0.2,1.08,GOOD
1790983990929,675,1988.0,-60.73597122501908,32000.0,74.4,98.0,-1.7,-0.2,1.08,GOOD
1790983991049,676,1999.0,-63.99940321061914,32000.0,74.4,98.0,-1.7,-0.3,1.08,GOOD
1790983991049,677,1996.0,-63.93451426696134,32000.0,74.4,98.0,-1.7,-0.3,1.08,GOOD
1790983991049,678,1926.0,-67.73255840181767,32000.0,74.4,98.0,-1.7,-0.3,1.08,GOOD
1790983991049,679,1918.0,-80.18327824865406,32000.0,74.4,98.0,-1.7,-0.3,1.08,GOOD
1790983991049,680,1931.0,-95.99725928904839,32000.0,74.4,98.0,-1.7,-0.3,1.08,GOOD
1790983991049,681,1942.0,-106.67213946833449,32000.0,74.4,98.0,-1.7,-0.3,1.08,GOOD
1790983991049,682,1979.0,-110.38007962873722,32000.0,74.4,98.0,-1.7,-0.3,1.08,GOOD
1790983991049,683,1950.0,-108.34749179778451,32000.0,74.4,98.0,-1.7,-0.3,1.08,GOOD
1790983991049,684,1940.0,-100.80704880176918,32000.0,74.4,98.0,-1.7,-0.3,1.08,GOOD
1790983991049,685,1943.0,-89.66445049940006,32000.0,74.4,98.0,-1.7,-0.3,1.08,GOOD
1790983991049,686,2051.0,-76.30871078705056,32000.0,74.4,98.0,-1.7,-0.3,1.08,GOOD
1790983991049,687,2024.0,-59.52183805804012,32000.0,74.4,98.0,-1.7,-0.3,1.08,GOOD
1790983991049,688,2013.0,-41.72350473588034,32000.0,74.4,98.0,-1.7,-0.3,1.08,GOOD
1790983991049,689,2007.0,-27.22724355448168,32000.0,74.4,98.0,-1.7,-0.3,1.08,GOOD
1790983991049,690,2075.0,-12.963603426934839,32000.0,74.4,98.0,-1.7,-0.3,1.08,GOOD
1790983991049,691,2072.0,5.227699909428706,32000.0,74.4,98.0,-1.7,-0.3,1.08,GOOD
1790983991049,692,2057.0,20.677966667110354,32000.0,74.4,98.0,-1.7,-0.3,1.08,GOOD
1790983991049,693,2044.0,24.301399793914022,32000.0,74.4,98.0,-1.7,-0.3,1.08,GOOD
1790983991049,694,2001.0,18.424123118100724,32000.0,74.4,98.0,-1.7,-0.3,1.08,GOOD
1790983991049,695,2017.0,10.300455981819125,32000.0,74.4,98.0,-1.7,-0.3,1.08,GOOD
1790983991049,696,2024.0,1.5811194915845035,32000.0,74.4,98.0,-1.7,-0.3,1.08,GOOD
1790983991049,697,2024.0,-9.53707956083538,32000.0,74.4,98.0,-1.7,-0.3,1.08,GOOD
1790983991049,698,1959.0,-23.305853356943082,32000.0,74.4,98.0,-1.7,-0.3,1.08,GOOD
1790983991049,699,1973.0,-36.5813806424723,32000.0,74.4,98.0,-1.7,-0.3,1.08,GOOD
1790983991049,700,1980.0,-44.0815653452716,32000.0,74.4,98.0,-1.7,-0.3,1.08,GOOD
1790983991124,701,1989.0,-45.444636009449454,32000.0,74.4,98.0,-1.7,-0.2,1.08,GOOD
1790983991124,702,1972.0,-47.82271807275716,32000.0,74.4,98.0,-1.7,-0.2,1.08,GOOD
1790983991124,703,1966.0,-54.85624016888592,32000.0,74.4,98.0,-1.7,-0.2,1.08,GOOD
1790983991124,704,1970.0,-59.78751838291369,32000.0,74.4,98.0,-1.7,-0.2,1.08,GOOD
1790983991124,705,1970.0,-56.036260968022155,32000.0,74.4,98.0,-1.7,-0.2,1.08,GOOD
1790983991124,706,1996.0,-47.81113260080491,32000.0,74.4,98.0,-1.7,-0.2,1.08,GOOD
1790983991124,707,1975.0,-43.89717271590058,32000.0,74.4,98.0,-1.7,-0.2,1.08,GOOD
1790983991124,708,1969.0,-46.317213065919475,32000.0,74.4,98.0,-1.7,-0.2,1.08,GOOD
1790983991124,709,1972.0,-48.72674099583603,32000.0,74.4,98.0,-1.7,-0.2,1.08,GOOD
1790983991124,710,2070.0,-41.641969982662815,32000.0,74.4,98.0,-1.7,-0.2,1.08,GOOD
1790983991124,711,2071.0,-20.456431305753597,32000.0,74.4,98.0,-1.7,-0.2,1.08,GOOD
1790983991124,712,2069.0,7.501655943106858,32000.0,74.4,98.0,-1.7,-0.2,1.08,GOOD
1790983991124,713,2084.0,31.458853298023477,32000.0,74.4,98.0,-1.7,-0.2,1.08,GOOD
1790983991124,714,2036.0,48.69033084602484,32000.0,74.4,98.0,-1.7,-0.2,1.08,GOOD
1790983991124,715,2041.0,56.89806281914504,32000.0,74.4,98.0,-1.7,-0.2,1.08,GOOD
1790983991124,716,2040.0,50.80495130621056,32000.0,74.4,98.0,-1.7,-0.2,1.08,GOOD
1790983991124,717,2038.0,32.342590794421454,32000.0,74.4,98.0,-1.7,-0.2,1.08,GOOD
1790983991124,718,2006.0,11.924190864627436,32000.0,74.4,98.0,-1.7,-0.2,1.08,GOOD
1790983991124,719,2017.0,-0.37954415408557196,32000.0,74.4,98.0,-1.7,-0.2,1.08,GOOD
1790983991124,720,2027.0,-1.7797995173206158,32000.0,74.4,98.0,-1.7,-0.2,1.08,GOOD
1790983991124,721,2026.0,1.9785838216594458,32000.0,74.4,98.0,-1.7,-0.2,1.08,GOOD
1790983991124,722,2016.0,2.4535678237752903,32000.0,74.4,98.0,-1.7,-0.2,1.08,GOOD
1790983991124,723,2031.0,-1.0436292772571876,32000.0,74.4,98.0,-1.7,-0.2,1.08,GOOD
1790983991124,724,2039.0,-0.42312426060486263,32000.0,74.4,98.0,-1.7,-0.2,1.08,GOOD
1790983991124,725,2046.0,8.622530477671964,32000.0,74.4,98.0,-1.7,-0.2,1.08,GOOD
1790983991254,726,2023.0,18.674319659412305,32000.0,74.4,98.0,-1.8,-0.3,1.08,GOOD
1790983991254,727,2016.0,19.364435614812166,32000.0,74.4,98.0,-1.8,-0.3,1.08,GOOD
1790983991254,728,2008.0,10.410979004318254,32000.0,74.4,98.0,-1.8,-0.3,1.08,GOOD
1790983991254,729,2010.0,0.5036526425974257,32000.0,74.4,98.0,-1.8,-0.3,1.08,GOOD
1790983991254,730,2041.0,-3.498422404304227,32000.0,74.4,98.0,-1.8,-0.3,1.08,GOOD
1790983991254,731,2008.0,-2.265094846625908,32000.0,74.4,98.0,-1.8,-0.3,1.08,GOOD
1790983991254,732,2018.0,-1.2889329460740082,32000.0,74.4,98.0,-1.8,-0.3,1.08,GOOD
1790983991254,733,2012.0,-2.3104326494735035,32000.0,74.4,98.0,-1.8,-0.3,1.08,GOOD
1790983991254,734,2073.0,0.302924579845985,32000.0,74.4,98.0,-1.8,-0.3,1.08,GOOD
1790983991254,735,2075.0,12.006267811173897,32000.0,74.4,98.0,-1.8,-0.3,1.08,GOOD
1790983991254,736,2070.0,29.338973217497923,32000.0,74.4,98.0,-1.8,-0.3,1.08,GOOD
1790983991254,737,2071.0,43.67258377139286,32000.0,74.4,98.0,-1.8,-0.3,1.08,GOOD
1790983991254,738,2005.0,49.56341443301562,32000.0,74.4,98.0,-1.8,-0.3,1.08,GOOD
1790983991254,739,2026.0,44.13824739895171,32000.0,74.4,98.0,-1.8,-0.3,1.08,GOOD
1790983991254,740,2026.0,28.741899259539974,32000.0,74.4,98.0,-1.8,-0.3,1.08,GOOD
1790983991254,741,2028.0,10.720141886961068,32000.0,74.4,98.0,-1.8,-0.3,1.08,GOOD
1790983991254,742,1928.0,-5.784094070763081,32000.0,74.4,98.0,-1.8,-0.3,1.08,GOOD
1790983991254,743,1926.0,-24.578632626238875,32000.0,74.4,98.0,-1.8,-0.3,1.08,GOOD
1790983991254,744,1920.0,-47.68132064901618,32000.0,74.4,98.0,-1.8,-0.3,1.08,GOOD
1790983991254,745,1918.0,-71.17756368437587,32000.0,74.4,98.0,-1.8,-0.3,1.08,GOOD
1790983991254,746,2229.0,-79.1903422194589,32000.0,74.4,98.0,-1.8,-0.3,1.08,GOOD
1790983991254,747,2242.0,-39.957963446270206,32000.0,74.4,98.0,-1.8,-0.3,1.08,GOOD
1790983991254,748,2271.0,54.889851009136166,32000.0,74.4,98.0,-1.8,-0.3,1.08,GOOD
1790983991254,749,2293.0,168.1946750598768,32000.0,74.4,98.0,-1.8,-0.3,1.08,GOOD
1790983991254,750,2723.0,272.66293248273655,32000.0,74.4,98.0,-1.8,-0.3,1.08,GOOD
1790983991377,751,2684.0,382.8251521524427,32000.0,74.4,98.0,-1.7,-0.3,1.08,GOOD
1790983991377,752,2681.0,500.5604984351704,32000.0,74.4,98.0,-1.7,-0.3,1.08,GOOD
1790983991377,753,2681.0,594.3690703255172,32000.0,74.4,98.0,-1.7,-0.3,1.08,GOOD
1790983991377,754,1884.0,614.6603901555739,32000.0,74.4,98.0,-1.7,-0.3,1.08,GOOD
1790983991377,755,1851.0,493.70312423983944,32000.0,74.4,98.0,-1.7,-0.3,1.08,GOOD
1790983991377,756,1809.0,229.83048546399763,32000.0,74.4,98.0,-1.7,-0.3,1.08,GOOD
1790983991377,757,1795.0,-67.84507945216848,32000.0,74.4,98.0,-1.7,-0.3,1.08,GOOD
1790983991377,758,1800.0,-282.6923098458634,32000.0,74.4,98.0,-1.7,-0.3,1.08,GOOD
1790983991377,759,1856.0,-364.4159231658586,32000.0,74.4,98.0,-1.7,-0.3,1.08,GOOD
1790983991377,760,1851.0,-328.9162729676225,32000.0,74.4,98.0,-1.7,-0.3,1.08,GOOD
1790983991377,761,1836.0,-243.25799636298524,32000.0,74.4,98.0,-1.7,-0.3,1.08,GOOD
1790983991377,762,1971.0,-177.05139275705892,32000.0,74.4,98.0,-1.7,-0.3,1.08,GOOD
1790983991377,763,1991.0,-146.29328713700806,32000.0,74.4,98.0,-1.7,-0.3,1.08,GOOD
1790983991377,764,2021.0,-121.74921739503837,32000.0,74.4,98.0,-1.7,-0.3,1.08,GOOD
1790983991377,765,1968.0,-82.68329225497999,32000.0,74.4,98.0,-1.7,-0.3,1.08,GOOD
1790983991377,766,1932.0,-44.090026014752475,32000.0,74.4,98.0,-1.7,-0.3,1.08,GOOD
1790983991377,767,1915.0,-36.598774056410655,32000.0,74.4,98.0,-1.7,-0.3,1.08,GOOD
1790983991377,768,1934.0,-66.75179236368577,32000.0,74.4,98.0,-1.7,-0.3,1.08,GOOD
1790983991377,769,2123.0,-98.98794776825582,32000.0,74.4,98.0,-1.7,-0.3,1.08,GOOD
1790983991377,770,2103.0,-85.3173636999359,32000.0,74.4,98.0,-1.7,-0.3,1.08,GOOD
1790983991377,771,2072.0,-23.125166435823203,32000.0,74.4,98.0,-1.7,-0.3,1.08,GOOD
1790983991377,772,2054.0,39.923498070635304,32000.0,74.4,98.0,-1.7,-0.3,1.08,GOOD
1790983991377,773,2106.0,66.52296753616616,32000.0,74.4,98.0,-1.7,-0.3,1.08,GOOD
1790983991377,774,2123.0,64.12986112991673,32000.0,74.4,98.0,-1.7,-0.3,1.08,GOOD
1790983991377,775,2110.0,59.01669380344261,32000.0,74.4,98.0,-1.7,-0.3,1.08,GOOD
1790983991459,776,2083.0,61.710587159738736,32000.0,74.4,98.0,-1.6,-0.3,1.08,GOOD
1790983991459,777,2079.0,64.586899245349,32000.0,74.4,98.0,-1.6,-0.3,1.08,GOOD
1790983991459,778,2101.0,60.433789950085,32000.0,74.4,98.0,-1.6,-0.3,1.08,GOOD
1790983991459,779,2126.0,53.33689997791187,32000.0,74.4,98.0,-1.6,-0.3,1.08,GOOD
1790983991459,780,2122.0,52.40531695450242,32000.0,74.4,98.0,-1.6,-0.3,1.08,GOOD
1790983991459,781,2057.0,57.942368151994124,32000.0,74.4,98.0,-1.6,-0.3,1.08,GOOD
1790983991459,782,2053.0,58.99124472874349,32000.0,74.4,98.0,-1.6,-0.3,1.08,GOOD
1790983991459,783,2074.0,48.395285687506835,32000.0,74.4,98.0,-1.6,-0.3,1.08,GOOD
1790983991459,784,2097.0,32.587007695664596,32000.0,74.4,98.0,-1.6,-0.3,1.08,GOOD
1790983991459,785,2082.0,22.291963012235676,32000.0,74.4,98.0,-1.6,-0.3,1.08,GOOD
1790983991459,786,2055.0,20.853085977162404,32000.0,74.4,98.0,-1.6,-0.3,1.08,GOOD
1790983991459,787,2046.0,23.491191501179788,32000.0,74.4,98.0,-1.6,-0.3,1.08,GOOD
1790983991459,788,2058.0,23.677153301760885,32000.0,74.4,98.0,-1.6,-0.3,1.08,GOOD
1790983991459,789,2206.0,23.89595095806437,32000.0,74.4,98.0,-1.6,-0.3,1.08,GOOD
1790983991459,790,2191.0,38.04132301843549,32000.0,74.4,98.0,-1.6,-0.3,1.08,GOOD
1790983991459,791,2183.0,71.50914126035195,32000.0,74.4,98.0,-1.6,-0.3,1.08,GOOD
1790983991459,792,2175.0,111.05901252708101,32000.0,74.4,98.0,-1.6,-0.3,1.08,GOOD
1790983991459,793,2304.0,144.72396426124473,32000.0,74.4,98.0,-1.6,-0.3,1.08,GOOD
1790983991459,794,2306.0,173.49404465028164,32000.0,74.4,98.0,-1.6,-0.3,1.08,GOOD
1790983991459,795,2299.0,198.04414489236024,32000.0,74.4,98.0,-1.6,-0.3,1.08,GOOD
1790983991459,796,2289.0,214.62762119310236,32000.0,74.4,98.0,-1.6,-0.3,1.08,GOOD
1790983991459,797,2242.0,223.29708507740307,32000.0,74.4,98.0,-1.6,-0.3,1.08,GOOD
1790983991459,798,2252.0,222.94928506317245,32000.0,74.4,98.0,-1.6,-0.3,1.08,GOOD
1790983991459,799,2270.0,209.47981289292633,32000.0,74.4,98.0,-1.6,-0.3,1.08,GOOD
1790983991459,800,2275.0,186.3940857419071,32000.0,74.4,98.0,-1.6,-0.3,1.08,GOOD
1790983991541,801,2291.0,167.96837058930774,32000.0,74.4,98.0,-1.7,-0.2,1.08,GOOD
1790983991541,802,2280.0,168.21054727070666,32000.0,74.4,98.0,-1.7,-0.2,1.08,GOOD
1790983991541,803,2286.0,184.87266826678103,32000.0,74.4,98.0,-1.7,-0.2,1.08,GOOD
1790983991541,804,2287.0,199.54427093832095,32000.0,74.4,98.0,-1.7,-0.2,1.08,GOOD
1790983991541,805,2214.0,194.7436117547142,32000.0,74.4,98.0,-1.7,-0.2,1.08,GOOD
1790983991541,806,2196.0,167.8232904211339,32000.0,74.4,98.0,-1.7,-0.2,1.08,GOOD
1790983991541,807,2191.0,132.9605568603236,32000.0,74.4,98.0,-1.7,-0.2,1.08,GOOD
1790983991541,808,2186.0,106.27730043916908,32000.0,74.4,98.0,-1.7,-0.2,1.08,GOOD
1790983991541,809,2134.0,86.75739075743658,32000.0,74.4,98.0,-1.7,-0.2,1.08,GOOD
1790983991541,810,2109.0,61.62645551499026,32000.0,74.4,98.0,-1.7,-0.2,1.08,GOOD
1790983991541,811,2094.0,29.033229594261154,32000.0,74.4,98.0,-1.7,-0.2,1.08,GOOD
1790983991541,812,2081.0,1.3308385303045824,32000.0,74.4,98.0,-1.7,-0.2,1.08,GOOD
1790983991541,813,2079.0,-14.198906216364424,32000.0,74.4,98.0,-1.7,-0.2,1.08,GOOD
1790983991541,814,2085.0,-23.584209559028725,32000.0,74.4,98.0,-1.7,-0.2,1.08,GOOD
1790983991541,815,2085.0,-33.52996576114183,32000.0,74.4,98.0,-1.7,-0.2,1.08,GOOD
1790983991541,816,2070.0,-41.56182928090449,32000.0,74.4,98.0,-1.7,-0.2,1.08,GOOD
1790983991541,817,1976.0,-45.822128724196624,32000.0,74.4,98.0,-1.7,-0.2,1.08,GOOD
1790983991541,818,1983.0,-55.82571373584118,32000.0,74.4,98.0,-1.7,-0.2,1.08,GOOD
1790983991541,819,1980.0,-80.11728146916411,32000.0,74.4,98.0,-1.7,-0.2,1.08,GOOD
1790983991541,820,1977.0,-112.69931572089402,32000.0,74.4,98.0,-1.7,-0.2,1.08,GOOD
1790983991541,821,1933.0,-140.58160159369106,32000.0,74.4,98.0,-1.7,-0.2,1.08,GOOD
1790983991541,822,1941.0,-155.6678796160151,32000.0,74.4,98.0,-1.7,-0.2,1.08,GOOD
1790983991541,823,1955.0,-157.64413586454737,32000.0,74.4,98.0,-1.7,-0.2,1.08,GOOD
1790983991541,824,1959.0,-152.79177614102161,32000.0,74.4,98.0,-1.7,-0.2,1.08,GOOD
1790983991541,825,1858.0,-153.35046075055686,32000.0,74.4,98.0,-1.7,-0.2,1.08,GOOD
1790983991642,826,1848.0,-169.9844391747007,32000.0,74.4,98.0,-1.7,-0.3,1.08,GOOD
1790983991642,827,1842.0,-198.12126443161048,32000.0,74.4,98.0,-1.7,-0.3,1.08,GOOD
1790983991642,828,1837.0,-223.24030154529987,32000.0,74.4,98.0,-1.7,-0.3,1.08,GOOD
1790983991642,829,1894.0,-237.6216837721625,32000.0,74.4,98.0,-1.7,-0.3,1.08,GOOD
1790983991642,830,1880.0,-239.6459634111603,32000.0,74.4,98.0,-1.7,-0.3,1.08,GOOD
1790983991642,831,1868.0,-229.6765774306587,32000.0,74.4,98.0,-1.7,-0.3,1.08,GOOD
1790983991642,832,1863.0,-212.37490159041985,32000.0,74.4,98.0,-1.7,-0.3,1.08,GOOD
1790983991642,833,1970.0,-191.7433158002375,32000.0,74.4,98.0,-1.7,-0.3,1.08,GOOD
1790983991642,834,1971.0,-167.12641052103612,32000.0,74.4,98.0,-1.7,-0.3,1.08,GOOD
1790983991642,835,1975.0,-140.46677061036115,32000.0,74.4,98.0,-1.7,-0.3,1.08,GOOD
1790983991642,836,1984.0,-116.1164246620664,32000.0,74.4,98.0,-1.7,-0.3,1.08,GOOD
1790983991642,837,1987.0,-93.3464447538206,32000.0,74.4,98.0,-1.7,-0.3,1.08,GOOD
1790983991642,838,1980.0,-73.12522097182651,32000.0,74.4,98.0,-1.7,-0.3,1.08,GOOD
1790983991642,839,1981.0,-63.787295139161515,32000.0,74.4,98.0,-1.7,-0.3,1.08,GOOD
1790983991642,840,1986.0,-69.11098715637519,32000.0,74.4,98.0,-1.7,-0.3,1.08,GOOD
1790983991642,841,1931.0,-81.42739079502624,32000.0,74.4,98.0,-1.7,-0.3,1.08,GOOD
1790983991642,842,1934.0,-92.109973912399,32000.0,74.4,98.0,-1.7,-0.3,1.08,GOOD
1790983991642,843,1933.0,-99.50416463700947,32000.0,74.4,98.0,-1.7,-0.3,1.08,GOOD
1790983991642,844,1935.0,-106.78284437848053,32000.0,74.4,98.0,-1.7,-0.3,1.08,GOOD
1790983991642,845,1889.0,-117.95782222807378,32000.0,74.4,98.0,-1.7,-0.3,1.08,GOOD
1790983991642,846,1895.0,-132.45739289585137,32000.0,74.4,98.0,-1.7,-0.3,1.08,GOOD
1790983991642,847,1887.0,-143.32071600999757,32000.0,74.4,98.0,-1.7,-0.3,1.08,GOOD
1790983991642,848,1873.0,-146.921479602675,32000.0,74.4,98.0,-1.7,-0.3,1.08,GOOD
1790983991642,849,1949.0,-146.7147331063972,32000.0,74.4,98.0,-1.7,-0.3,1.08,GOOD
1790983991642,850,1935.0,-142.26359264686255,32000.0,74.4,98.0,-1.7,-0.3,1.08,GOOD
1790983991738,851,1946.0,-129.31298397931624,32000.0,74.4,98.0,-1.7,-0.3,1.08,GOOD
1790983991738,852,1933.0,-109.06503531449097,32000.0,74.4,98.0,-1.7,-0.3,1.08,GOOD
1790983991738,853,1995.0,-86.95648303829826,32000.0,74.4,98.0,-1.7,-0.3,1.08,GOOD
1790983991738,854,1986.0,-67.61891910905302,32000.0,74.4,98.0,-1.7,-0.3,1.08,GOOD
1790983991738,855,1993.0,-54.25880414989163,32000.0,74.4,98.0,-1.7,-0.3,1.08,GOOD
1790983991738,856,2008.0,-45.776460503785344,32000.0,74.4,98.0,-1.7,-0.3,1.08,GOOD
1790983991738,857,1998.0,-36.09105864140377,32000.0,74.4,98.0,-1.7,-0.3,1.08,GOOD
1790983991738,858,1987.0,-24.607898103073328,32000.0,74.4,98.0,-1.7,-0.3,1.08,GOOD
1790983991738,859,1981.0,-19.636011091588827,32000.0,74.4,98.0,-1.7,-0.3,1.08,GOOD
1790983991738,860,1986.0,-25.967810567234153,32000.0,74.4,98.0,-1.7,-0.3,1.08,GOOD
1790983991738,861,1975.0,-37.412966823044215,32000.0,74.4,98.0,-1.7,-0.3,1.08,GOOD
1790983991738,862,1984.0,-44.17666166693445,32000.0,74.4,98.0,-1.7,-0.3,1.08,GOOD
1790983991738,863,1975.0,-43.102687863848836,32000.0,74.4,98.0,-1.7,-0.3,1.08,GOOD
1790983991738,864,1976.0,-39.4226627408043,32000.0,74.4,98.0,-1.7,-0.3,1.08,GOOD
1790983991738,865,1971.0,-39.389661755081875,32000.0,74.4,98.0,-1.7,-0.3,1.08,GOOD
1790983991738,866,1985.0,-42.40024667141547,32000.0,74.4,98.0,-1.7,-0.3,1.08,GOOD
1790983991738,867,1996.0,-42.13308239416338,32000.0,74.4,98.0,-1.7,-0.3,1.08,GOOD
1790983991738,868,2000.0,-34.9342944821404,32000.0,74.4,98.0,-1.7,-0.3,1.08,GOOD
1790983991738,869,1919.0,-27.60074354710321,32000.0,74.4,98.0,-1.7,-0.3,1.08,GOOD
1790983991738,870,1915.0,-33.35598777176842,32000.0,74.4,98.0,-1.7,-0.3,1.08,GOOD
1790983991738,871,1919.0,-54.46547505165386,32000.0,74.4,98.0,-1.7,-0.3,1.08,GOOD
1790983991738,872,1909.0,-78.57337010545758,32000.0,74.4,98.0,-1.7,-0.3,1.08,GOOD
1790983991738,873,2000.0,-91.51762156332126,32000.0,74.4,98.0,-1.7,-0.3,1.08,GOOD
1790983991738,874,1986.0,-84.11808019378529,32000.0,74.4,98.0,-1.7,-0.3,1.08,GOOD
1790983991738,875,1990.0,-58.84130226737272,32000.0,74.4,98.0,-1.7,-0.3,1.08,GOOD
1790983991829,876,1998.0,-29.36337634387218,32000.0,74.4,98.0,-1.7,-0.2,1.07,GOOD
1790983991829,877,2057.0,-5.060235100285494,32000.0,74.4,98.0,-1.7,-0.2,1.07,GOOD
1790983991829,878,2040.0,14.05035230778556,32000.0,74.4,98.0,-1.7,-0.2,1.07,GOOD
1790983991829,879,2034.0,27.73202413427692,32000.0,74.4,98.0,-1.7,-0.2,1.07,GOOD
1790983991829,880,2044.0,34.67031660448763,32000.0,74.4,98.0,-1.7,-0.2,1.07,GOOD
1790983991829,881,2002.0,36.444589924871906,32000.0,74.4,98.0,-1.7,-0.2,1.07,GOOD
1790983991829,882,2002.0,32.40012300712749,32000.0,74.4,98.0,-1.7,-0.2,1.07,GOOD
1790983991829,883,1997.0,20.430179331523263,32000.0,74.4,98.0,-1.7,-0.2,1.07,GOOD
1790983991829,884,1994.0,4.144993180734363,32000.0,74.4,98.0,-1.7,-0.2,1.07,GOOD
1790983991829,885,1969.0,-9.772711971081417,32000.0,74.4,98.0,-1.7,-0.2,1.07,GOOD
1790983991829,886,1983.0,-17.827837863699155,32000.0,74.4,98.0,-1.7,-0.2,1.07,GOOD
1790983991829,887,1982.0,-20.38322178005305,32000.0,74.4,98.0,-1.7,-0.2,1.07,GOOD
1790983991829,888,1972.0,-20.74743345916912,32000.0,74.4,98.0,-1.7,-0.2,1.07,GOOD
1790983991829,889,1967.0,-22.925940903613302,32000.0,74.4,98.0,-1.7,-0.2,1.07,GOOD
1790983991829,890,1989.0,-25.96591638554927,32000.0,74.4,98.0,-1.7,-0.2,1.07,GOOD
1790983991829,891,2004.0,-23.908566615192743,32000.0,74.4,98.0,-1.7,-0.2,1.07,GOOD
1790983991829,892,2000.0,-14.708726523389716,32000.0,74.4,98.0,-1.7,-0.2,1.07,GOOD
1790983991829,893,1968.0,-5.387312208426039,32000.0,74.4,98.0,-1.7,-0.2,1.07,GOOD
1790983991829,894,1961.0,-4.696417025433362,32000.0,74.4,98.0,-1.7,-0.2,1.07,GOOD
1790983991829,895,1957.0,-13.006571502815564,32000.0,74.4,98.0,-1.7,-0.2,1.07,GOOD
1790983991829,896,1952.0,-24.091970236325214,32000.0,74.4,98.0,-1.7,-0.2,1.07,GOOD
1790983991829,897,2078.0,-28.85827672547166,32000.0,74.4,98.0,-1.7,-0.2,1.07,GOOD
1790983991829,898,2060.0,-16.059487495895105,32000.0,74.4,98.0,-1.7,-0.2,1.07,GOOD
1790983991829,899,2058.0,14.596562736718884,32000.0,74.4,98.0,-1.7,-0.2,1.07,GOOD
1790983991829,900,2071.0,49.01110921878309,32000.0,74.4,98.0,-1.7,-0.2,1.07,GOOD
1790983991932,901,2048.0,73.87578035628343,32000.0,80.4,98.0,-1.7,-0.2,1.08,GOOD
1790983991932,902,2041.0,81.48693906714931,32000.0,80.4,98.0,-1.7,-0.2,1.08,GOOD
1790983991932,903,2031.0,70.50837869384003,32000.0,80.4,98.0,-1.7,-0.2,1.08,GOOD
1790983991932,904,2062.0,51.32255690955916,32000.0,80.4,98.0,-1.7,-0.2,1.08,GOOD
1790983991932,905,2074.0,41.040987656749536,32000.0,80.4,98.0,-1.7,-0.2,1.08,GOOD
1790983991932,906,2077.0,47.76466680863221,32000.0,80.4,98.0,-1.7,-0.2,1.08,GOOD
1790983991932,907,2071.0,63.22840338600528,32000.0,80.4,98.0,-1.7,-0.2,1.08,GOOD
1790983991932,908,1886.0,66.79207467856446,32000.0,80.4,98.0,-1.7,-0.2,1.08,GOOD
1790983991932,909,1895.0,38.13422567464653,32000.0,80.4,98.0,-1.7,-0.2,1.08,GOOD
1790983991932,910,1909.0,-17.378536809961986,32000.0,80.4,98.0,-1.7,-0.2,1.08,GOOD
1790983991932,911,1917.0,-70.02646391532046,32000.0,80.4,98.0,-1.7,-0.2,1.08,GOOD
1790983991932,912,1995.0,-96.42599881946438,32000.0,80.4,98.0,-1.7,-0.2,1.08,GOOD
1790983991932,913,1978.0,-90.12150744499905,32000.0,80.4,98.0,-1.7,-0.2,1.08,GOOD
1790983991932,914,1974.0,-59.43743922268587,32000.0,80.4,98.0,-1.7,-0.2,1.08,GOOD
1790983991932,915,1968.0,-23.84086646795539,32000.0,80.4,98.0,-1.7,-0.2,1.08,GOOD
1790983991932,916,2017.0,0.2102584785745658,32000.0,80.4,98.0,-1.7,-0.2,1.08,GOOD
1790983991932,917,1997.0,8.685458055053502,32000.0,80.4,98.0,-1.7,-0.2,1.08,GOOD
1790983991932,918,1985.0,6.0488433241206305,32000.0,80.4,98.0,-1.7,-0.2,1.08,GOOD
1790983991932,919,1990.0,0.47538680652312104,32000.0,80.4,98.0,-1.7,-0.2,1.08,GOOD
1790983991932,920,2078.0,3.463896334715832,32000.0,80.4,98.0,-1.7,-0.2,1.08,GOOD
1790983991932,921,2074.0,22.211273789597055,32000.0,80.4,98.0,-1.7,-0.2,1.08,GOOD
1790983991932,922,2073.0,48.69289214243518,32000.0,80.4,98.0,-1.7,-0.2,1.08,GOOD
1790983991932,923,2072.0,68.76732241499525,32000.0,80.4,98.0,-1.7,-0.2,1.08,GOOD
1790983991932,924,2181.0,84.10879816399725,32000.0,80.4,98.0,-1.7,-0.2,1.08,GOOD
1790983991932,925,2206.0,110.16415623401988,32000.0,80.4,98.0,-1.7,-0.2,1.08,GOOD
1790983992187,926,2231.0,150.12087184614478,32000.0,80.4,98.0,-1.8,-0.2,1.08,GOOD
1790983992187,927,2249.0,189.69793855857807,32000.0,80.4,98.0,-1.8,-0.2,1.08,GOOD
1790983992187,928,2518.0,229.01283921483176,32000.0,80.4,98.0,-1.8,-0.2,1.08,GOOD
1790983992187,929,2496.0,291.7034128380558,32000.0,80.4,98.0,-1.8,-0.2,1.08,GOOD
1790983992187,930,2488.0,378.37521224835,32000.0,80.4,98.0,-1.8,-0.2,1.08,GOOD
1790983992187,931,2477.0,451.6474717670247,32000.0,80.4,98.0,-1.8,-0.2,1.08,GOOD
1790983992187,932,1849.0,458.18158255937004,32000.0,80.4,98.0,-1.8,-0.2,1.08,GOOD
1790983992187,933,1821.0,345.8257202084507,32000.0,80.4,98.0,-1.8,-0.2,1.08,GOOD
1790983992187,934,1781.0,128.17217192462172,32000.0,80.4,98.0,-1.8,-0.2,1.08,GOOD
1790983992187,935,1757.0,-102.45527043679498,32000.0,80.4,98.0,-1.8,-0.2,1.08,GOOD
1790983992187,936,1859.0,-261.7918785084769,32000.0,80.4,98.0,-1.8,-0.2,1.08,GOOD
1790983992187,937,1885.0,-315.3076942430743,32000.0,80.4,98.0,-1.8,-0.2,1.08,GOOD
1790983992187,938,1902.0,-273.08748669355464,32000.0,80.4,98.0,-1.8,-0.2,1.08,GOOD
1790983992187,939,1891.0,-184.75874283406858,32000.0,80.4,98.0,-1.8,-0.2,1.08,GOOD
1790983992187,940,2076.0,-104.18866477609167,32000.0,80.4,98.0,-1.8,-0.2,1.08,GOOD
1790983992187,941,2065.0,-49.43295569481914,32000.0,80.4,98.0,-1.8,-0.2,1.08,GOOD
1790983992187,942,2094.0,-9.695010705239296,32000.0,80.4,98.0,-1.8,-0.2,1.08,GOOD
1790983992187,943,2092.0,27.818808001588486,32000.0,80.4,98.0,-1.8,-0.2,1.08,GOOD
1790983992187,944,2070.0,64.81332162930451,32000.0,80.4,98.0,-1.8,-0.2,1.08,GOOD
1790983992187,945,2053.0,86.7026609055919,32000.0,80.4,98.0,-1.8,-0.2,1.08,GOOD
1790983992187,946,2066.0,78.96737566779353,32000.0,80.4,98.0,-1.8,-0.2,1.08,GOOD
1790983992187,947,2085.0,51.95056773134394,32000.0,80.4,98.0,-1.8,-0.2,1.08,GOOD
1790983992187,948,2009.0,31.196735757302363,32000.0,80.4,98.0,-1.8,-0.2,1.08,GOOD
1790983992187,949,2000.0,24.967021602990126,32000.0,80.4,98.0,-1.8,-0.2,1.08,GOOD
1790983992187,950,1994.0,19.642750001106272,32000.0,80.4,98.0,-1.8,-0.2,1.08,GOOD
1790983992188,951,1998.0,2.817650823879215,32000.0,80.4,98.0,-1.8,-0.2,1.08,GOOD
1790983992188,952,1982.0,-22.160574818867335,32000.0,80.4,98.0,-1.8,-0.2,1.08,GOOD
1790983992188,953,2008.0,-39.674466037464995,32000.0,80.4,98.0,-1.8,-0.2,1.08,GOOD
1790983992188,954,1995.0,-37.81142246757838,32000.0,80.4,98.0,-1.8,-0.2,1.08,GOOD
1790983992188,955,1979.0,-24.063527573397234,32000.0,80.4,98.0,-1.8,-0.2,1.08,GOOD
1790983992188,956,2079.0,-14.196157787242438,32000.0,80.4,98.0,-1.8,-0.2,1.08,GOOD
1790983992188,957,2092.0,-6.200031928933899,32000.0,80.4,98.0,-1.8,-0.2,1.08,GOOD
1790983992188,958,2102.0,13.660531493907577,32000.0,80.4,98.0,-1.8,-0.2,1.08,GOOD
1790983992188,959,2081.0,45.79528532489897,32000.0,80.4,98.0,-1.8,-0.2,1.08,GOOD
1790983992188,960,2115.0,75.8000020825593,32000.0,80.4,98.0,-1.8,-0.2,1.08,GOOD
1790983992188,961,2109.0,90.76724357909663,32000.0,80.4,98.0,-1.8,-0.2,1.08,GOOD
1790983992188,962,2120.0,89.8864717962401,32000.0,80.4,98.0,-1.8,-0.2,1.08,GOOD
1790983992188,963,2131.0,83.96700390826261,32000.0,80.4,98.0,-1.8,-0.2,1.08,GOOD
1790983992188,964,2189.0,87.88479627380866,32000.0,80.4,98.0,-1.8,-0.2,1.08,GOOD
1790983992188,965,2183.0,107.66085025261259,32000.0,80.4,98.0,-1.8,-0.2,1.08,GOOD
1790983992188,966,2186.0,132.81758377264381,32000.0,80.4,98.0,-1.8,-0.2,1.08,GOOD
1790983992188,967,2109.0,145.40555942060163,32000.0,80.4,98.0,-1.8,-0.2,1.08,GOOD
1790983992188,968,2118.0,136.56644487265223,32000.0,80.4,98.0,-1.8,-0.2,1.08,GOOD
1790983992188,969,2116.0,114.11050900414833,32000.0,80.4,98.0,-1.8,-0.2,1.08,GOOD
1790983992188,970,2097.0,91.24373448379093,32000.0,80.4,98.0,-1.8,-0.2,1.08,GOOD
1790983992188,971,2183.0,75.37493511823617,32000.0,80.4,98.0,-1.8,-0.2,1.08,GOOD
1790983992188,972,2203.0,74.55754375913676,32000.0,80.4,98.0,-1.8,-0.2,1.08,GOOD
1790983992188,973,2213.0,94.93849023856922,32000.0,80.4,98.0,-1.8,-0.2,1.08,GOOD
1790983992188,974,2202.0,128.5007291882042,32000.0,80.4,98.0,-1.8,-0.2,1.08,GOOD
1790983992188,975,2332.0,162.51642921531723,32000.0,80.4,98.0,-1.8,-0.2,1.08,GOOD
1790983992304,976,2326.0,194.89304037601227,32000.0,80.4,98.0,-1.7,-0.2,1.09,GOOD
1790983992304,977,2342.0,226.12761164228118,32000.0,80.4,98.0,-1.7,-0.2,1.09,GOOD
1790983992304,978,2350.0,252.22835630324738,32000.0,80.4,98.0,-1.7,-0.2,1.09,GOOD
1790983992304,979,2330.0,270.94489998613017,32000.0,80.4,98.0,-1.7,-0.2,1.09,GOOD
1790983992304,980,2303.0,278.5790582611223,32000.0,80.4,98.0,-1.7,-0.2,1.09,GOOD
1790983992304,981,2300.0,268.9069894070625,32000.0,80.4,98.0,-1.7,-0.2,1.09,GOOD
1790983992304,982,2317.0,244.84552019493375,32000.0,80.4,98.0,-1.7,-0.2,1.09,GOOD
1790983992304,983,2339.0,222.0080709782269,32000.0,80.4,98.0,-1.7,-0.2,1.09,GOOD
1790983992304,984,2335.0,215.00083351888279,32000.0,80.4,98.0,-1.7,-0.2,1.09,GOOD
1790983992304,985,2325.0,222.81223606308131,32000.0,80.4,98.0,-1.7,-0.2,1.09,GOOD
1790983992304,986,2323.0,231.79155219041346,32000.0,80.4,98.0,-1.7,-0.2,1.09,GOOD
1790983992304,987,2126.0,223.44582773805058,32000.0,80.4,98.0,-1.7,-0.2,1.09,GOOD
1790983992304,988,2140.0,181.7139520369206,32000.0,80.4,98.0,-1.7,-0.2,1.09,GOOD
1790983992304,989,2125.0,113.88704659660154,32000.0,80.4,98.0,-1.7,-0.2,1.09,GOOD
1790983992304,990,2098.0,47.97210762285932,32000.0,80.4,98.0,-1.7,-0.2,1.09,GOOD
1790983992304,991,1946.0,-4.405786135608345,32000.0,80.4,98.0,-1.7,-0.2,1.09,GOOD
1790983992304,992,1963.0,-54.1859323799125,32000.0,80.4,98.0,-1.7,-0.2,1.09,GOOD
1790983992304,993,1974.0,-102.73901654788347,32000.0,80.4,98.0,-1.7,-0.2,1.09,GOOD
1790983992304,994,1958.0,-136.73403564214252,32000.0,80.4,98.0,-1.7,-0.2,1.09,GOOD
1790983992304,995,1976.0,-151.73361391097507,32000.0,80.4,98.0,-1.7,-0.2,1.09,GOOD
1790983992304,996,1975.0,-153.49414168640348,32000.0,80.4,98.0,-1.7,-0.2,1.09,GOOD
1790983992304,997,1994.0,-145.6481609536643,32000.0,80.4,98.0,-1.7,-0.2,1.09,GOOD
1790983992304,998,2004.0,-129.9444045801726,32000.0,80.4,98.0,-1.7,-0.2,1.09,GOOD
1790983992304,999,1987.0,-112.3461426512467,32000.0,80.4,98.0,-1.7,-0.2,1.09,GOOD
1790983992304,1000,1958.0,-103.57083994804587,32000.0,80.4,98.0,-1.7,-0.2,1.09,GOOD
1790983992304,1001,1959.0,-109.35239136433762,32000.0,80.4,98.0,-1.7,-0.2,1.09,GOOD
1790983992304,1002,1972.0,-122.39827252048606,32000.0,80.4,98.0,-1.7,-0.2,1.09,GOOD
1790983992304,1003,1964.0,-130.8749145513762,32000.0,80.4,98.0,-1.7,-0.2,1.09,GOOD
1790983992304,1004,1956.0,-132.35847769308396,32000.0,80.4,98.0,-1.7,-0.2,1.09,GOOD
1790983992304,1005,1932.0,-133.32931423041887,32000.0,80.4,98.0,-1.7,-0.2,1.09,GOOD
1790983992304,1006,1941.0,-138.02024587035464,32000.0,80.4,98.0,-1.7,-0.2,1.09,GOOD
1790983992304,1007,1903.0,-144.79986622447421,32000.0,80.4,98.0,-1.7,-0.2,1.09,GOOD
1790983992304,1008,1921.0,-152.16137228532244,32000.0,80.4,98.0,-1.7,-0.2,1.09,GOOD
1790983992304,1009,1909.0,-160.13751403620893,32000.0,80.4,98.0,-1.7,-0.2,1.09,GOOD
1790983992304,1010,1897.0,-167.91609156672226,32000.0,80.4,98.0,-1.7,-0.2,1.09,GOOD
1790983992304,1011,1902.0,-173.76037755575157,32000.0,80.4,98.0,-1.7,-0.2,1.09,GOOD
1790983992304,1012,1924.0,-174.23565695927738,32000.0,80.4,98.0,-1.7,-0.2,1.09,GOOD
1790983992304,1013,1932.0,-166.94619566387792,32000.0,80.4,98.0,-1.7,-0.2,1.09,GOOD
1790983992304,1014,1922.0,-155.45571252958277,32000.0,80.4,98.0,-1.7,-0.2,1.09,GOOD
1790983992304,1015,1952.0,-145.1189546794919,32000.0,80.4,98.0,-1.7,-0.2,1.09,GOOD
1790983992304,1016,1928.0,-136.0948490786174,32000.0,80.4,98.0,-1.7,-0.2,1.09,GOOD
1790983992304,1017,1946.0,-127.0057416044333,32000.0,80.4,98.0,-1.7,-0.2,1.09,GOOD
1790983992304,1018,1948.0,-119.19035252018107,32000.0,80.4,98.0,-1.7,-0.2,1.09,GOOD
1790983992304,1019,2008.0,-111.99361044977796,32000.0,80.4,98.0,-1.7,-0.2,1.09,GOOD
1790983992304,1020,1984.0,-100.98941504286594,32000.0,80.4,98.0,-1.7,-0.2,1.09,GOOD
1790983992304,1021,1984.0,-85.3940929319042,32000.0,80.4,98.0,-1.7,-0.2,1.09,GOOD
1790983992304,1022,1992.0,-70.1136836959346,32000.0,80.4,98.0,-1.7,-0.2,1.09,GOOD
1790983992304,1023,2010.0,-58.88798342174247,32000.0,80.4,98.0,-1.7,-0.2,1.09,GOOD
1790983992304,1024,1995.0,-52.899320055996256,32000.0,80.4,98.0,-1.7,-0.2,1.09,GOOD
1790983992304,1025,1984.0,-52.89333009471467,32000.0,80.4,98.0,-1.7,-0.2,1.09,GOOD
1790983992561,1026,1995.0,-56.44977237090096,34.0,80.4,98.0,-1.7,-0.3,1.08,GOOD
1790983992561,1027,1942.0,-59.92350572388631,37.0,80.4,98.0,-1.7,-0.3,1.08,GOOD
1790983992561,1028,1945.0,-66.05520121914883,39.0,80.4,98.0,-1.7,-0.3,1.08,GOOD
1790983992561,1029,1962.0,-78.30414585741599,43.0,80.4,98.0,-1.7,-0.3,1.08,GOOD
1790983992561,1030,1954.0,-91.38231240275954,46.0,80.4,98.0,-1.7,-0.3,1.08,GOOD
1790983992561,1031,1843.0,-101.9095828101641,50.0,80.4,98.0,-1.7,-0.3,1.08,GOOD
1790983992561,1032,1873.0,-116.51393564720263,55.0,80.4,98.0,-1.7,-0.3,1.08,GOOD
1790983992561,1033,1881.0,-136.80724821519354,60.0,80.4,98.0,-1.7,-0.3,1.08,GOOD
1790983992561,1034,1869.0,-155.02052452793197,62.0,80.4,98.0,-1.7,-0.3,1.08,GOOD
1790983992561,1035,1943.0,-163.8060247794163,66.0,80.4,98.0,-1.7,-0.3,1.08,GOOD
1790983992561,1036,1955.0,-154.98287660879856,70.0,80.4,98.0,-1.7,-0.3,1.08,GOOD
1790983992561,1037,1977.0,-124.97985591596736,72.0,80.4,98.0,-1.7,-0.3,1.08,GOOD
1790983992561,1038,1980.0,-84.76245565051777,75.0,80.4,98.0,-1.7,-0.3,1.08,GOOD
1790983992561,1039,2021.0,-50.56437712033761,75.0,80.4,98.0,-1.7,-0.3,1.08,GOOD
1790983992561,1040,2003.0,-29.679909289527455,77.0,80.4,98.0,-1.7,-0.3,1.08,GOOD
1790983992561,1041,1996.0,-20.31665212629556,78.0,80.4,98.0,-1.7,-0.3,1.08,GOOD
1790983992561,1042,2015.0,-16.991155292953557,78.0,80.4,98.0,-1.7,-0.3,1.08,GOOD
1790983992561,1043,2058.0,-12.261944059436932,78.0,80.4,98.0,-1.7,-0.3,1.08,GOOD
1790983992561,1044,2037.0,-2.3060523744858035,76.0,80.4,98.0,-1.7,-0.3,1.08,GOOD
1790983992561,1045,2026.0,7.822451115084308,74.0,80.4,98.0,-1.7,-0.3,1.08,GOOD
1790983992561,1046,2032.0,12.370837843970795,73.0,80.4,98.0,-1.7,-0.3,1.08,GOOD
1790983992561,1047,2012.0,12.57821901651376,72.0,80.4,98.0,-1.7,-0.3,1.08,GOOD
1790983992561,1048,2020.0,10.33604096291041,70.0,80.4,98.0,-1.7,-0.3,1.08,GOOD
1790983992561,1049,2004.0,4.130283652902476,68.0,80.4,98.0,-1.7,-0.3,1.08,GOOD
1790983992561,1050,1994.0,-6.5033364773575375,64.0,80.4,98.0,-1.7,-0.3,1.08,GOOD
1790983992562,1051,1943.0,-19.83571949790671,32000.0,80.4,98.0,-1.7,-0.3,1.08,GOOD
1790983992562,1052,1977.0,-33.49136755989428,32000.0,80.4,98.0,-1.7,-0.3,1.08,GOOD
1790983992562,1053,1977.0,-43.70711224039463,32000.0,80.4,98.0,-1.7,-0.3,1.08,GOOD
1790983992562,1054,1955.0,-49.26205031015087,32000.0,80.4,98.0,-1.7,-0.3,1.08,GOOD
1790983992562,1055,1953.0,-53.96630806890171,32000.0,80.4,98.0,-1.7,-0.3,1.08,GOOD
1790983992562,1056,1963.0,-58.30441482263892,32000.0,80.4,98.0,-1.7,-0.3,1.08,GOOD
1790983992562,1057,1979.0,-57.242144684287425,32000.0,80.4,98.0,-1.7,-0.3,1.08,GOOD
1790983992562,1058,1976.0,-49.68449889843891,32000.0,80.4,98.0,-1.7,-0.3,1.08,GOOD
1790983992562,1059,2014.0,-40.10235888976505,32000.0,80.4,98.0,-1.7,-0.3,1.08,GOOD
1790983992562,1060,1983.0,-31.134041062199692,32000.0,80.4,98.0,-1.7,-0.3,1.08,GOOD
1790983992562,1061,1999.0,-22.726159005010558,32000.0,80.4,98.0,-1.7,-0.3,1.08,GOOD
1790983992562,1062,1992.0,-15.177345081862388,32000.0,80.4,98.0,-1.7,-0.3,1.08,GOOD
1790983992562,1063,2065.0,-7.519953748469288,32000.0,80.4,98.0,-1.7,-0.3,1.08,GOOD
1790983992562,1064,2045.0,3.1380448726757866,32000.0,80.4,98.0,-1.7,-0.3,1.08,GOOD
1790983992562,1065,2037.0,16.217759156562796,32000.0,80.4,98.0,-1.7,-0.3,1.08,GOOD
1790983992562,1066,2052.0,27.959349159172557,32000.0,80.4,98.0,-1.7,-0.3,1.08,GOOD
1790983992562,1067,2043.0,37.25540569265729,32000.0,80.4,98.0,-1.7,-0.3,1.08,GOOD
1790983992562,1068,2043.0,42.43583376258526,32000.0,80.4,98.0,-1.7,-0.3,1.08,GOOD
1790983992562,1069,2028.0,39.630720128306336,32000.0,80.4,98.0,-1.7,-0.3,1.08,GOOD
1790983992562,1070,1974.0,27.533494326660847,32000.0,80.4,98.0,-1.7,-0.3,1.08,GOOD
1790983992562,1071,1992.0,9.361904921515945,32000.0,80.4,98.0,-1.7,-0.3,1.08,GOOD
1790983992562,1072,2016.0,-6.455167216706256,32000.0,80.4,98.0,-1.7,-0.3,1.08,GOOD
1790983992562,1073,2014.0,-12.5881021434313,32000.0,80.4,98.0,-1.7,-0.3,1.08,GOOD
1790983992562,1074,1977.0,-12.279713869011877,32000.0,80.4,98.0,-1.7,-0.3,1.08,GOOD
1790983992562,1075,1965.0,-14.380134752055055,32000.0,80.4,98.0,-1.7,-0.3,1.08,GOOD
1790983992673,1076,1977.0,-20.6284438550462,32000.0,70.1,98.0,-1.7,-0.3,1.08,GOOD
1790983992673,1077,1990.0,-25.5995401075147,32000.0,70.1,98.0,-1.7,-0.3,1.08,GOOD
1790983992673,1078,2105.0,-22.213017469284374,32000.0,70.1,98.0,-1.7,-0.3,1.08,GOOD
1790983992673,1079,2076.0,-3.8034812764238612,32000.0,70.1,98.0,-1.7,-0.3,1.08,GOOD
1790983992673,1080,2063.0,26.630380398257298,32000.0,70.1,98.0,-1.7,-0.3,1.08,GOOD
1790983992673,1081,2065.0,55.71183358316228,32000.0,70.1,98.0,-1.7,-0.3,1.08,GOOD
1790983992673,1082,2020.0,71.28000564456974,32000.0,70.1,98.0,-1.7,-0.3,1.08,GOOD
1790983992673,1083,2004.0,65.05209480398872,32000.0,70.1,98.0,-1.7,-0.3,1.08,GOOD
1790983992673,1084,1988.0,37.118101370506366,32000.0,70.1,98.0,-1.7,-0.3,1.08,GOOD
1790983992673,1085,1984.0,1.7386121035028754,32000.0,70.1,98.0,-1.7,-0.3,1.08,GOOD
1790983992673,1086,1982.0,-22.88672353872598,32000.0,70.1,98.0,-1.7,-0.3,1.08,GOOD
1790983992673,1087,2003.0,-29.399816693501492,32000.0,70.1,98.0,-1.7,-0.3,1.08,GOOD
1790983992673,1088,1997.0,-23.873830641239092,32000.0,70.1,98.0,-1.7,-0.3,1.08,GOOD
1790983992673,1089,1994.0,-17.151864167334264,32000.0,70.1,98.0,-1.7,-0.3,1.08,GOOD
1790983992673,1090,1951.0,-15.865979053502564,32000.0,70.1,98.0,-1.7,-0.3,1.08,GOOD
1790983992673,1091,1977.0,-19.96231167880064,32000.0,70.1,98.0,-1.7,-0.3,1.08,GOOD
1790983992673,1092,1989.0,-24.629314498887844,32000.0,70.1,98.0,-1.7,-0.3,1.08,GOOD
1790983992673,1093,1983.0,-26.52274100698547,32000.0,70.1,98.0,-1.7,-0.3,1.08,GOOD
1790983992673,1094,1938.0,-29.00717171437966,32000.0,70.1,98.0,-1.7,-0.3,1.08,GOOD
1790983992673,1095,1934.0,-36.54542544648132,32000.0,70.1,98.0,-1.7,-0.3,1.08,GOOD
1790983992673,1096,1942.0,-46.58146661448393,32000.0,70.1,98.0,-1.7,-0.3,1.08,GOOD
1790983992673,1097,1942.0,-53.700324363941355,32000.0,70.1,98.0,-1.7,-0.3,1.08,GOOD
1790983992673,1098,2319.0,-43.15645359498677,32000.0,70.1,98.0,-1.7,-0.3,1.08,GOOD
1790983992673,1099,2327.0,16.15436223745436,32000.0,70.1,98.0,-1.7,-0.3,1.08,GOOD
1790983992673,1100,2351.0,129.53091048704897,32000.0,70.1,98.0,-1.7,-0.3,1.08,GOOD
1790983992754,1101,2393.0,256.22124011476683,32000.0,70.1,98.0,-1.7,-0.2,1.08,GOOD
1790983992754,1102,2675.0,364.86806766289885,32000.0,70.1,98.0,-1.7,-0.2,1.08,GOOD
1790983992754,1103,2602.0,457.4191912464414,32000.0,70.1,98.0,-1.7,-0.2,1.08,GOOD
1790983992754,1104,2580.0,528.0507238117812,32000.0,70.1,98.0,-1.7,-0.2,1.08,GOOD
1790983992754,1105,2568.0,559.8678848483904,32000.0,70.1,98.0,-1.7,-0.2,1.08,GOOD
1790983992754,1106,1841.0,530.3549673539578,32000.0,70.1,98.0,-1.7,-0.2,1.08,GOOD
1790983992754,1107,1832.0,394.46894405046436,32000.0,70.1,98.0,-1.7,-0.2,1.08,GOOD
1790983992754,1108,1787.0,153.23466665140717,32000.0,70.1,98.0,-1.7,-0.2,1.08,GOOD
1790983992754,1109,1752.0,-106.26192177504691,32000.0,70.1,98.0,-1.7,-0.2,1.08,GOOD
1790983992754,1110,1828.0,-291.5959942234565,32000.0,70.1,98.0,-1.7,-0.2,1.08,GOOD
1790983992754,1111,1891.0,-356.1172116635499,32000.0,70.1,98.0,-1.7,-0.2,1.08,GOOD
1790983992754,1112,1906.0,-306.41334261300494,32000.0,70.1,98.0,-1.7,-0.2,1.08,GOOD
1790983992754,1113,1894.0,-204.40259014033214,32000.0,70.1,98.0,-1.7,-0.2,1.08,GOOD
1790983992754,1114,1987.0,-123.02936067457674,32000.0,70.1,98.0,-1.7,-0.2,1.08,GOOD
1790983992754,1115,1987.0,-87.52540431764572,32000.0,70.1,98.0,-1.7,-0.2,1.08,GOOD
1790983992754,1116,2027.0,-73.78974955874858,32000.0,70.1,98.0,-1.7,-0.2,1.08,GOOD
1790983992754,1117,2031.0,-51.90001470937227,32000.0,70.1,98.0,-1.7,-0.2,1.08,GOOD
1790983992754,1118,1985.0,-20.499384592316236,32000.0,70.1,98.0,-1.7,-0.2,1.08,GOOD
1790983992754,1119,1958.0,-4.903794338999868,32000.0,70.1,98.0,-1.7,-0.2,1.08,GOOD
1790983992754,1120,1967.0,-20.98236362054063,32000.0,70.1,98.0,-1.7,-0.2,1.08,GOOD
1790983992754,1121,2000.0,-50.5801333341411,32000.0,70.1,98.0,-1.7,-0.2,1.08,GOOD
1790983992754,1122,2142.0,-57.57719223587667,32000.0,70.1,98.0,-1.7,-0.2,1.08,GOOD
1790983992754,1123,2118.0,-23.11976913018746,32000.0,70.1,98.0,-1.7,-0.2,1.08,GOOD
1790983992754,1124,2092.0,32.25626448063746,32000.0,70.1,98.0,-1.7,-0.2,1.08,GOOD
1790983992754,1125,2108.0,72.273540363569,32000.0,70.1,98.0,-1.7,-0.2,1.08,GOOD
1790983992848,1126,2131.0,87.23487858018945,32000.0,70.1,98.0,-1.7,-0.2,1.08,GOOD
1790983992848,1127,2134.0,91.78465058030343,32000.0,70.1,98.0,-1.7,-0.2,1.08,GOOD
1790983992848,1128,2102.0,94.07121751031735,32000.0,70.1,98.0,-1.7,-0.2,1.08,GOOD
1790983992848,1129,2092.0,88.75460295402729,32000.0,70.1,98.0,-1.7,-0.2,1.08,GOOD
1790983992848,1130,2040.0,72.04839613316457,32000.0,70.1,98.0,-1.7,-0.2,1.08,GOOD
1790983992848,1131,2078.0,49.98587571132621,32000.0,70.1,98.0,-1.7,-0.2,1.08,GOOD
1790983992848,1132,2072.0,33.38460806152254,32000.0,70.1,98.0,-1.7,-0.2,1.08,GOOD
1790983992848,1133,2048.0,25.632984072837818,32000.0,70.1,98.0,-1.7,-0.2,1.08,GOOD
1790983992848,1134,2051.0,20.05842377492045,32000.0,70.1,98.0,-1.7,-0.2,1.08,GOOD
1790983992848,1135,2078.0,14.443256929409728,32000.0,70.1,98.0,-1.7,-0.2,1.08,GOOD
1790983992848,1136,2105.0,16.244377745798385,32000.0,70.1,98.0,-1.7,-0.2,1.08,GOOD
1790983992848,1137,2104.0,29.25008533429161,32000.0,70.1,98.0,-1.7,-0.2,1.08,GOOD
1790983992848,1138,2092.0,45.57399376731542,32000.0,70.1,98.0,-1.7,-0.2,1.08,GOOD
1790983992848,1139,2074.0,54.194919070254755,32000.0,70.1,98.0,-1.7,-0.2,1.08,GOOD
1790983992848,1140,2090.0,52.62474345476579,32000.0,70.1,98.0,-1.7,-0.2,1.08,GOOD
1790983992848,1141,2112.0,47.852431227687546,32000.0,70.1,98.0,-1.7,-0.2,1.08,GOOD
1790983992848,1142,2234.0,51.81520993249421,32000.0,70.1,98.0,-1.7,-0.2,1.08,GOOD
1790983992848,1143,2211.0,74.58794749442315,32000.0,70.1,98.0,-1.7,-0.2,1.08,GOOD
1790983992848,1144,2194.0,111.19282433369213,32000.0,70.1,98.0,-1.7,-0.2,1.08,GOOD
1790983992848,1145,2212.0,144.34819142295564,32000.0,70.1,98.0,-1.7,-0.2,1.08,GOOD
1790983992848,1146,2324.0,167.76135491568877,32000.0,70.1,98.0,-1.7,-0.2,1.08,GOOD
1790983992848,1147,2314.0,189.50992478703645,32000.0,70.1,98.0,-1.7,-0.2,1.08,GOOD
1790983992848,1148,2293.0,211.28873622643835,32000.0,70.1,98.0,-1.7,-0.2,1.08,GOOD
1790983992848,1149,2289.0,225.70897161723042,32000.0,70.1,98.0,-1.7,-0.2,1.08,GOOD
1790983992848,1150,2280.0,230.84117323568222,32000.0,70.1,98.0,-1.7,-0.2,1.08,GOOD
1790983993007,1151,2302.0,229.47658925769025,32000.0,70.1,98.0,-1.7,-0.3,1.07,GOOD
1790983993007,1152,2298.0,222.07512174377288,32000.0,70.1,98.0,-1.7,-0.3,1.07,GOOD
1790983993007,1153,2287.0,209.49923083782232,32000.0,70.1,98.0,-1.7,-0.3,1.07,GOOD
1790983993007,1154,2292.0,197.70545920229821,32000.0,70.1,98.0,-1.7,-0.3,1.07,GOOD
1790983993007,1155,2317.0,195.2846169085223,32000.0,70.1,98.0,-1.7,-0.3,1.07,GOOD
1790983993007,1156,2340.0,204.14384461318696,32000.0,70.1,98.0,-1.7,-0.3,1.07,GOOD
1790983993007,1157,2212.0,210.94856736734755,32000.0,70.1,98.0,-1.7,-0.3,1.07,GOOD
1790983993007,1158,2194.0,194.9611710260874,32000.0,70.1,98.0,-1.7,-0.3,1.07,GOOD
1790983993007,1159,2182.0,154.62073504661703,32000.0,70.1,98.0,-1.7,-0.3,1.07,GOOD
1790983993007,1160,2193.0,111.53379940938565,32000.0,70.1,98.0,-1.7,-0.3,1.07,GOOD
1790983993007,1161,2131.0,80.05620811246256,32000.0,70.1,98.0,-1.7,-0.3,1.07,GOOD
1790983993007,1162,2115.0,53.67291141824733,32000.0,70.1,98.0,-1.7,-0.3,1.07,GOOD
1790983993007,1163,2084.0,24.75106132104698,32000.0,70.1,98.0,-1.7,-0.3,1.07,GOOD
1790983993007,1164,2089.0,-1.6082523998153644,32000.0,70.1,98.0,-1.7,-0.3,1.07,GOOD
1790983993007,1165,1999.0,-21.33970712227216,32000.0,70.1,98.0,-1.7,-0.3,1.07,GOOD
1790983993007,1166,2010.0,-43.52996545273318,32000.0,70.1,98.0,-1.7,-0.3,1.07,GOOD
1790983993007,1167,2000.0,-74.76286795985742,32000.0,70.1,98.0,-1.7,-0.3,1.07,GOOD
1790983993007,1168,1937.0,-107.92436167958668,32000.0,70.1,98.0,-1.7,-0.3,1.07,GOOD
1790983993007,1169,1922.0,-135.4700139984175,32000.0,70.1,98.0,-1.7,-0.3,1.07,GOOD
1790983993007,1170,1953.0,-155.0257369806059,32000.0,70.1,98.0,-1.7,-0.3,1.07,GOOD
1790983993007,1171,1967.0,-164.7276019942302,32000.0,70.1,98.0,-1.7,-0.3,1.07,GOOD
1790983993007,1172,1968.0,-165.15691527888788,32000.0,70.1,98.0,-1.7,-0.3,1.07,GOOD
1790983993007,1173,1953.0,-159.46560549369917,32000.0,70.1,98.0,-1.7,-0.3,1.07,GOOD
1790983993007,1174,1946.0,-150.3211604964203,32000.0,70.1,98.0,-1.7,-0.3,1.07,GOOD
1790983993007,1175,1959.0,-140.73971690754615,32000.0,70.1,98.0,-1.7,-0.3,1.07,GOOD
1790983993080,1176,1980.0,-134.45877771947525,32000.0,70.1,98.0,-1.6,-0.3,1.09,GOOD
1790983993080,1177,1912.0,-135.21760797064718,32000.0,70.1,98.0,-1.6,-0.3,1.09,GOOD
1790983993080,1178,1903.0,-145.4763981119288,32000.0,70.1,98.0,-1.6,-0.3,1.09,GOOD
1790983993080,1179,1892.0,-161.06853285051707,32000.0,70.1,98.0,-1.6,-0.3,1.09,GOOD
1790983993080,1180,1904.0,-173.7191394935873,32000.0,70.1,98.0,-1.6,-0.3,1.09,GOOD
1790983993080,1181,1967.0,-178.82105167461134,32000.0,70.1,98.0,-1.6,-0.3,1.09,GOOD
1790983993080,1182,1963.0,-173.82486995588187,32000.0,70.1,98.0,-1.6,-0.3,1.09,GOOD
1790983993080,1183,1942.0,-158.6060607201419,32000.0,70.1,98.0,-1.6,-0.3,1.09,GOOD
1790983993080,1184,1935.0,-138.83350801884234,32000.0,70.1,98.0,-1.6,-0.3,1.09,GOOD
1790983993080,1185,1985.0,-121.15415455793472,32000.0,70.1,98.0,-1.6,-0.3,1.09,GOOD
1790983993080,1186,1970.0,-109.35496982649013,32000.0,70.1,98.0,-1.6,-0.3,1.09,GOOD
1790983993080,1187,1953.0,-106.51192573034218,32000.0,70.1,98.0,-1.6,-0.3,1.09,GOOD
1790983993080,1188,1937.0,-111.89240788276408,32000.0,70.1,98.0,-1.6,-0.3,1.09,GOOD
1790983993080,1189,1999.0,-115.46055638495574,32000.0,70.1,98.0,-1.6,-0.3,1.09,GOOD
1790983993080,1190,2006.0,-106.187917814111,32000.0,70.1,98.0,-1.6,-0.3,1.09,GOOD
1790983993080,1191,2023.0,-86.72483580707149,32000.0,70.1,98.0,-1.6,-0.3,1.09,GOOD
1790983993080,1192,2030.0,-68.43207423162934,32000.0,70.1,98.0,-1.6,-0.3,1.09,GOOD
1790983993080,1193,1989.0,-56.13341885149019,32000.0,70.1,98.0,-1.6,-0.3,1.09,GOOD
1790983993080,1194,1989.0,-49.1464394130394,32000.0,70.1,98.0,-1.6,-0.3,1.09,GOOD
1790983993080,1195,1997.0,-48.005112726281034,32000.0,70.1,98.0,-1.6,-0.3,1.09,GOOD
1790983993080,1196,2005.0,-53.612191528651735,32000.0,70.1,98.0,-1.6,-0.3,1.09,GOOD
1790983993080,1197,1919.0,-66.79948044553278,32000.0,70.1,98.0,-1.6,-0.3,1.09,GOOD
1790983993080,1198,1919.0,-87.26079214201769,32000.0,70.1,98.0,-1.6,-0.3,1.09,GOOD
1790983993080,1199,1911.0,-108.63475776410357,32000.0,70.1,98.0,-1.6,-0.3,1.09,GOOD
1790983993080,1200,1922.0,-123.41228565146808,32000.0,70.1,98.0,-1.6,-0.3,1.09,GOOD
1790983993214,1201,1927.0,-132.1762577350492,32000.0,70.1,98.0,-1.6,-0.2,1.08,GOOD
1790983993214,1202,1935.0,-137.5606570928104,32000.0,70.1,98.0,-1.6,-0.2,1.08,GOOD
1790983993214,1203,1895.0,-137.5496399817667,32000.0,70.1,98.0,-1.6,-0.2,1.08,GOOD
1790983993214,1204,1894.0,-132.16114153139623,32000.0,70.1,98.0,-1.6,-0.2,1.08,GOOD
1790983993214,1205,1958.0,-125.205742915535,32000.0,70.1,98.0,-1.6,-0.2,1.08,GOOD
1790983993214,1206,1957.0,-117.94678435335044,32000.0,70.1,98.0,-1.6,-0.2,1.08,GOOD
1790983993214,1207,1964.0,-109.5545155556461,32000.0,70.1,98.0,-1.6,-0.2,1.08,GOOD
1790983993214,1208,1949.0,-98.71743242585264,32000.0,70.1,98.0,-1.6,-0.2,1.08,GOOD
1790983993214,1209,2050.0,-80.74565834554309,32000.0,70.1,98.0,-1.6,-0.2,1.08,GOOD
1790983993214,1210,2041.0,-51.90658003422738,32000.0,70.1,98.0,-1.6,-0.2,1.08,GOOD
1790983993214,1211,2054.0,-20.221820817324648,32000.0,70.1,98.0,-1.6,-0.2,1.08,GOOD
1790983993214,1212,2060.0,1.789191174177283,32000.0,70.1,98.0,-1.6,-0.2,1.08,GOOD
1790983993214,1213,2035.0,13.43053368770054,32000.0,70.1,98.0,-1.6,-0.2,1.08,GOOD
1790983993214,1214,2029.0,19.75739013418983,32000.0,70.1,98.0,-1.6,-0.2,1.08,GOOD
1790983993214,1215,2024.0,19.682357682847236,32000.0,70.1,98.0,-1.6,-0.2,1.08,GOOD
1790983993214,1216,2033.0,10.138588035345617,32000.0,70.1,98.0,-1.6,-0.2,1.08,GOOD
1790983993214,1217,1973.0,-6.8748357563266875,32000.0,70.1,98.0,-1.6,-0.2,1.08,GOOD
1790983993214,1218,1984.0,-25.142792092499942,32000.0,70.1,98.0,-1.6,-0.2,1.08,GOOD
1790983993214,1219,1971.0,-38.103144981693056,32000.0,70.1,98.0,-1.6,-0.2,1.08,GOOD
1790983993214,1220,1973.0,-44.91371815941589,32000.0,70.1,98.0,-1.6,-0.2,1.08,GOOD
1790983993214,1221,1965.0,-51.63510158179997,32000.0,70.1,98.0,-1.6,-0.2,1.08,GOOD
1790983993214,1222,1967.0,-60.96306187800681,32000.0,70.1,98.0,-1.6,-0.2,1.08,GOOD
1790983993214,1223,1957.0,-67.36621384735649,32000.0,70.1,98.0,-1.6,-0.2,1.08,GOOD
1790983993214,1224,1944.0,-66.77679267629495,32000.0,70.1,98.0,-1.6,-0.2,1.08,GOOD
1790983993214,1225,1996.0,-62.29322264906801,32000.0,70.1,98.0,-1.6,-0.2,1.08,GOOD
1790983993354,1226,2000.0,-56.7322402963669,32000.0,74.8,98.0,-1.7,-0.2,1.07,GOOD
1790983993354,1227,2003.0,-48.95384719345679,32000.0,74.8,98.0,-1.7,-0.2,1.07,GOOD
1790983993354,1228,1998.0,-37.65145627035495,32000.0,74.8,98.0,-1.7,-0.2,1.07,GOOD
1790983993354,1229,2050.0,-22.11425873655231,32000.0,74.8,98.0,-1.7,-0.2,1.07,GOOD
1790983993354,1230,2037.0,-3.685487993411039,32000.0,74.8,98.0,-1.7,-0.2,1.07,GOOD
1790983993354,1231,2038.0,11.023522623010663,32000.0,74.8,98.0,-1.7,-0.2,1.07,GOOD
1790983993354,1232,2055.0,17.282255710052585,32000.0,74.8,98.0,-1.7,-0.2,1.07,GOOD
1790983993354,1233,2050.0,20.32596227913091,32000.0,74.8,98.0,-1.7,-0.2,1.07,GOOD
1790983993354,1234,2037.0,25.73242371247645,32000.0,74.8,98.0,-1.7,-0.2,1.07,GOOD
1790983993354,1235,2029.0,29.43089988260077,32000.0,74.8,98.0,-1.7,-0.2,1.07,GOOD
1790983993354,1236,2038.0,25.44172429884955,32000.0,74.8,98.0,-1.7,-0.2,1.07,GOOD
1790983993354,1237,1999.0,14.813319931243358,32000.0,74.8,98.0,-1.7,-0.2,1.07,GOOD
1790983993354,1238,2013.0,2.885488523394896,32000.0,74.8,98.0,-1.7,-0.2,1.07,GOOD
1790983993354,1239,2003.0,-5.694073321230176,32000.0,74.8,98.0,-1.7,-0.2,1.07,GOOD
1790983993354,1240,2008.0,-10.132368056028522,32000.0,74.8,98.0,-1.7,-0.2,1.07,GOOD
1790983993354,1241,1982.0,-14.162728143596286,32000.0,74.8,98.0,-1.7,-0.2,1.07,GOOD
1790983993354,1242,1992.0,-20.56071454195763,32000.0,74.8,98.0,-1.7,-0.2,1.07,GOOD
1790983993354,1243,1985.0,-26.745050335705788,32000.0,74.8,98.0,-1.7,-0.2,1.07,GOOD
1790983993354,1244,1969.0,-29.99876521469948,32000.0,74.8,98.0,-1.7,-0.2,1.07,GOOD
1790983993354,1245,2045.0,-30.05320938106059,32000.0,74.8,98.0,-1.7,-0.2,1.07,GOOD
1790983993354,1246,2047.0,-23.133734383280924,32000.0,74.8,98.0,-1.7,-0.2,1.07,GOOD
1790983993354,1247,2060.0,-6.03245635152603,32000.0,74.8,98.0,-1.7,-0.2,1.07,GOOD
1790983993354,1248,2059.0,16.828013956209794,32000.0,74.8,98.0,-1.7,-0.2,1.07,GOOD
1790983993354,1249,2107.0,39.347826283559016,32000.0,74.8,98.0,-1.7,-0.2,1.07,GOOD
1790983993354,1250,2104.0,59.063121248079135,32000.0,74.8,98.0,-1.7,-0.2,1.07,GOOD
1790983993355,1251,2100.0,73.66959547704008,32000.0,74.8,98.0,-1.7,-0.2,1.07,GOOD
1790983993355,1252,2001.0,76.908816680328,32000.0,74.8,98.0,-1.7,-0.2,1.07,GOOD
1790983993355,1253,2010.0,62.39233198370495,32000.0,74.8,98.0,-1.7,-0.2,1.07,GOOD
1790983993355,1254,1995.0,33.66099701604519,32000.0,74.8,98.0,-1.7,-0.2,1.07,GOOD
1790983993355,1255,1983.0,1.987728273652447,32000.0,74.8,98.0,-1.7,-0.2,1.07,GOOD
1790983993355,1256,1909.0,-27.541111921398276,32000.0,74.8,98.0,-1.7,-0.2,1.07,GOOD
1790983993355,1257,1940.0,-55.346963424961444,32000.0,74.8,98.0,-1.7,-0.2,1.07,GOOD
1790983993355,1258,1947.0,-75.58092415954661,32000.0,74.8,98.0,-1.7,-0.2,1.07,GOOD
1790983993355,1259,1932.0,-81.98792149373661,32000.0,74.8,98.0,-1.7,-0.2,1.07,GOOD
1790983993355,1260,1926.0,-80.49492498582346,32000.0,74.8,98.0,-1.7,-0.2,1.07,GOOD
1790983993355,1261,1938.0,-80.14139286834282,32000.0,74.8,98.0,-1.7,-0.2,1.07,GOOD
1790983993355,1262,1957.0,-79.57420363603802,32000.0,74.8,98.0,-1.7,-0.2,1.07,GOOD
1790983993355,1263,1962.0,-72.53424759962459,32000.0,74.8,98.0,-1.7,-0.2,1.07,GOOD
1790983993355,1264,2027.0,-57.21713004512606,32000.0,74.8,98.0,-1.7,-0.2,1.07,GOOD
1790983993355,1265,2005.0,-36.100929535616075,32000.0,74.8,98.0,-1.7,-0.2,1.07,GOOD
1790983993355,1266,2007.0,-15.087027135003673,32000.0,74.8,98.0,-1.7,-0.2,1.07,GOOD
1790983993355,1267,2021.0,0.5270159398108252,32000.0,74.8,98.0,-1.7,-0.2,1.07,GOOD
1790983993355,1268,2274.0,20.963497510423057,32000.0,74.8,98.0,-1.7,-0.2,1.07,GOOD
1790983993355,1269,2276.0,69.25375823643185,32000.0,74.8,98.0,-1.7,-0.2,1.07,GOOD
1790983993355,1270,2283.0,145.5582599266132,32000.0,74.8,98.0,-1.7,-0.2,1.07,GOOD
1790983993355,1271,2314.0,221.76174579647306,32000.0,74.8,98.0,-1.7,-0.2,1.07,GOOD
1790983993355,1272,2630.0,289.6318952502577,32000.0,74.8,98.0,-1.7,-0.2,1.07,GOOD
1790983993355,1273,2604.0,370.8422596558824,32000.0,74.8,98.0,-1.7,-0.2,1.07,GOOD
1790983993355,1274,2586.0,462.81166818656015,32000.0,74.8,98.0,-1.7,-0.2,1.07,GOOD
1790983993355,1275,2579.0,530.5899952535758,32000.0,74.8,98.0,-1.7,-0.2,1.07,GOOD
1790983993438,1276,1915.0,531.8212512531467,32000.0,74.8,98.0,-1.6,-0.2,1.08,GOOD
1790983993438,1277,1924.0,420.24785004268523,32000.0,74.8,98.0,-1.6,-0.2,1.08,GOOD
1790983993438,1278,1884.0,204.50247146771773,32000.0,74.8,98.0,-1.6,-0.2,1.08,GOOD
1790983993438,1279,1844.0,-30.175092269415508,32000.0,74.8,98.0,-1.6,-0.2,1.08,GOOD
1790983993438,1280,1762.0,-206.303616163567,32000.0,74.8,98.0,-1.6,-0.2,1.08,GOOD
1790983993438,1281,1807.0,-295.3011535195742,32000.0,74.8,98.0,-1.6,-0.2,1.08,GOOD
1790983993438,1282,1818.0,-301.0794731256386,32000.0,74.8,98.0,-1.6,-0.2,1.08,GOOD
1790983993438,1283,1802.0,-258.8716088944216,32000.0,74.8,98.0,-1.6,-0.2,1.08,GOOD
1790983993438,1284,1971.0,-215.78352259591003,32000.0,74.8,98.0,-1.6,-0.2,1.08,GOOD
1790983993438,1285,1976.0,-184.75332129594688,32000.0,74.8,98.0,-1.6,-0.2,1.08,GOOD
1790983993438,1286,2013.0,-145.60175806963758,32000.0,74.8,98.0,-1.6,-0.2,1.08,GOOD
1790983993438,1287,2028.0,-86.6031489808545,32000.0,74.8,98.0,-1.6,-0.2,1.08,GOOD
1790983993438,1288,2045.0,-22.929168808159087,32000.0,74.8,98.0,-1.6,-0.2,1.08,GOOD
1790983993438,1289,2013.0,15.550555637324042,32000.0,74.8,98.0,-1.6,-0.2,1.08,GOOD
1790983993438,1290,2023.0,14.3533755158848,32000.0,74.8,98.0,-1.6,-0.2,1.08,GOOD
1790983993438,1291,2060.0,-5.51169391804646,32000.0,74.8,98.0,-1.6,-0.2,1.08,GOOD
1790983993438,1292,2115.0,-7.317873935885569,32000.0,74.8,98.0,-1.6,-0.2,1.08,GOOD
1790983993438,1293,2091.0,19.898431841136762,32000.0,74.8,98.0,-1.6,-0.2,1.08,GOOD
1790983993438,1294,2069.0,50.45071648382688,32000.0,74.8,98.0,-1.6,-0.2,1.08,GOOD
1790983993438,1295,2085.0,58.57115978943109,32000.0,74.8,98.0,-1.6,-0.2,1.08,GOOD
1790983993438,1296,2103.0,51.02851929689131,32000.0,74.8,98.0,-1.6,-0.2,1.08,GOOD
1790983993438,1297,2117.0,50.773659520556805,32000.0,74.8,98.0,-1.6,-0.2,1.08,GOOD
1790983993438,1298,2093.0,62.41088312382526,32000.0,74.8,98.0,-1.6,-0.2,1.08,GOOD
1790983993438,1299,2071.0,69.09126846807828,32000.0,74.8,98.0,-1.6,-0.2,1.08,GOOD
1790983993438,1300,2023.0,57.1420295071536,32000.0,74.8,98.0,-1.6,-0.2,1.08,GOOD
1790983993580,1301,2053.0,32.82488095960773,32000.0,74.8,98.0,-1.7,-0.2,1.08,GOOD
1790983993580,1302,2063.0,14.251271838524666,32000.0,74.8,98.0,-1.7,-0.2,1.08,GOOD
1790983993580,1303,2041.0,9.054398546788875,32000.0,74.8,98.0,-1.7,-0.2,1.08,GOOD
1790983993580,1304,1987.0,5.53071924876661,32000.0,74.8,98.0,-1.7,-0.2,1.08,GOOD
1790983993580,1305,1993.0,-8.539588914708256,32000.0,74.8,98.0,-1.7,-0.2,1.08,GOOD
1790983993580,1306,2016.0,-26.922181220348534,32000.0,74.8,98.0,-1.7,-0.2,1.08,GOOD
1790983993580,1307,2029.0,-34.94533637927135,32000.0,74.8,98.0,-1.7,-0.2,1.08,GOOD
1790983993580,1308,2132.0,-26.33639623686422,32000.0,74.8,98.0,-1.7,-0.2,1.08,GOOD
1790983993580,1309,2106.0,-2.354598335409288,32000.0,74.8,98.0,-1.7,-0.2,1.08,GOOD
1790983993580,1310,2121.0,30.390476607125173,32000.0,74.8,98.0,-1.7,-0.2,1.08,GOOD
1790983993580,1311,2146.0,63.178262535888834,32000.0,74.8,98.0,-1.7,-0.2,1.08,GOOD
1790983993580,1312,2254.0,94.68005851033672,32000.0,74.8,98.0,-1.7,-0.2,1.08,GOOD
1790983993580,1313,2231.0,127.42187775825212,32000.0,74.8,98.0,-1.7,-0.2,1.08,GOOD
1790983993580,1314,2218.0,155.63298910447594,32000.0,74.8,98.0,-1.7,-0.2,1.08,GOOD
1790983993580,1315,2238.0,172.11605083754108,32000.0,74.8,98.0,-1.7,-0.2,1.08,GOOD
1790983993580,1316,2298.0,183.25937464556765,32000.0,74.8,98.0,-1.7,-0.2,1.08,GOOD
1790983993580,1317,2296.0,199.14172087955953,32000.0,74.8,98.0,-1.7,-0.2,1.08,GOOD
1790983993580,1318,2281.0,215.3280457056826,32000.0,74.8,98.0,-1.7,-0.2,1.08,GOOD
1790983993580,1319,2269.0,220.54607248530476,32000.0,74.8,98.0,-1.7,-0.2,1.08,GOOD
1790983993580,1320,2244.0,214.05039250545977,32000.0,74.8,98.0,-1.7,-0.2,1.08,GOOD
1790983993580,1321,2281.0,204.2031621491953,32000.0,74.8,98.0,-1.7,-0.2,1.08,GOOD
1790983993580,1322,2280.0,197.13995236451174,32000.0,74.8,98.0,-1.7,-0.2,1.08,GOOD
1790983993580,1323,2265.0,191.31449302541765,32000.0,74.8,98.0,-1.7,-0.2,1.08,GOOD
1790983993580,1324,2239.0,182.35470306976597,32000.0,74.8,98.0,-1.7,-0.2,1.08,GOOD
1790983993580,1325,2259.0,172.30283177936892,32000.0,74.8,98.0,-1.7,-0.2,1.08,GOOD
1790983993663,1326,2271.0,167.85929361086028,32000.0,74.8,98.0,-1.7,-0.3,1.08,GOOD
1790983993663,1327,2262.0,168.73354348996247,32000.0,74.8,98.0,-1.7,-0.3,1.08,GOOD
1790983993663,1328,2219.0,165.12017386540668,32000.0,74.8,98.0,-1.7,-0.3,1.08,GOOD
1790983993663,1329,2194.0,149.888936884509,32000.0,74.8,98.0,-1.7,-0.3,1.08,GOOD
1790983993663,1330,2206.0,128.3599888851695,32000.0,74.8,98.0,-1.7,-0.3,1.08,GOOD
1790983993663,1331,2218.0,111.55795091081067,32000.0,74.8,98.0,-1.7,-0.3,1.08,GOOD
1790983993663,1332,2176.0,101.02516642890235,32000.0,74.8,98.0,-1.7,-0.3,1.08,GOOD
1790983993663,1333,2153.0,87.61099343616337,32000.0,74.8,98.0,-1.7,-0.3,1.08,GOOD
1790983993663,1334,2134.0,67.28147858499963,32000.0,74.8,98.0,-1.7,-0.3,1.08,GOOD
1790983993663,1335,2039.0,43.435507855606595,32000.0,74.8,98.0,-1.7,-0.3,1.08,GOOD
1790983993663,1336,2066.0,14.846219469083676,32000.0,74.8,98.0,-1.7,-0.3,1.08,GOOD
1790983993663,1337,2063.0,-19.168037293647117,32000.0,74.8,98.0,-1.7,-0.3,1.08,GOOD
1790983993663,1338,2042.0,-51.092122164437505,32000.0,74.8,98.0,-1.7,-0.3,1.08,GOOD
1790983993663,1339,1914.0,-77.19116947899398,32000.0,74.8,98.0,-1.7,-0.3,1.08,GOOD
1790983993663,1340,1943.0,-102.98944793474416,32000.0,74.8,98.0,-1.7,-0.3,1.08,GOOD
1790983993663,1341,1959.0,-129.43161078562733,32000.0,74.8,98.0,-1.7,-0.3,1.08,GOOD
1790983993663,1342,1962.0,-150.40115877770333,32000.0,74.8,98.0,-1.7,-0.3,1.08,GOOD
1790983993663,1343,1895.0,-165.61828674907048,32000.0,74.8,98.0,-1.7,-0.3,1.08,GOOD
1790983993663,1344,1885.0,-179.37633526557744,32000.0,74.8,98.0,-1.7,-0.3,1.08,GOOD
1790983993663,1345,1900.0,-189.6967662470733,32000.0,74.8,98.0,-1.7,-0.3,1.08,GOOD
1790983993663,1346,1906.0,-192.51705307194948,32000.0,74.8,98.0,-1.7,-0.3,1.08,GOOD
1790983993663,1347,1964.0,-189.96348751670305,32000.0,74.8,98.0,-1.7,-0.3,1.08,GOOD
1790983993663,1348,1942.0,-183.91603946950914,32000.0,74.8,98.0,-1.7,-0.3,1.08,GOOD
1790983993663,1349,1933.0,-172.14575959769516,32000.0,74.8,98.0,-1.7,-0.3,1.08,GOOD
1790983993663,1350,1942.0,-154.480872961099,32000.0,74.8,98.0,-1.7,-0.3,1.08,GOOD
1790983993790,1351,2009.0,-134.23634029087452,32000.0,74.8,98.0,-1.7,-0.2,1.08,GOOD
1790983993790,1352,1997.0,-116.18751404396977,32000.0,74.8,98.0,-1.7,-0.2,1.08,GOOD
1790983993790,1353,1983.0,-105.04521461120942,32000.0,74.8,98.0,-1.7,-0.2,1.08,GOOD
1790983993790,1354,1985.0,-99.64688193693596,32000.0,74.8,98.0,-1.7,-0.2,1.08,GOOD
1790983993790,1355,1946.0,-94.18048148508836,32000.0,74.8,98.0,-1.7,-0.2,1.08,GOOD
1790983993790,1356,1960.0,-90.79975891038463,32000.0,74.8,98.0,-1.7,-0.2,1.08,GOOD
1790983993790,1357,1961.0,-97.54264611523749,32000.0,74.8,98.0,-1.7,-0.2,1.08,GOOD
1790983993790,1358,1950.0,-113.48427163463612,32000.0,74.8,98.0,-1.7,-0.2,1.08,GOOD
1790983993790,1359,1946.0,-127.01700549877938,32000.0,74.8,98.0,-1.7,-0.2,1.08,GOOD
1790983993790,1360,1968.0,-126.9966320364772,32000.0,74.8,98.0,-1.7,-0.2,1.08,GOOD
1790983993790,1361,1985.0,-113.5788738471383,32000.0,74.8,98.0,-1.7,-0.2,1.08,GOOD
1790983993790,1362,1979.0,-98.31116454710686,32000.0,74.8,98.0,-1.7,-0.2,1.08,GOOD
1790983993790,1363,1917.0,-93.66790617788803,32000.0,74.8,98.0,-1.7,-0.2,1.08,GOOD
1790983993790,1364,1919.0,-102.27237599400274,32000.0,74.8,98.0,-1.7,-0.2,1.08,GOOD
1790983993790,1365,1917.0,-115.52029444498315,32000.0,74.8,98.0,-1.7,-0.2,1.08,GOOD
1790983993790,1366,1919.0,-125.66245042444335,32000.0,74.8,98.0,-1.7,-0.2,1.08,GOOD
1790983993790,1367,1939.0,-133.43223442591028,32000.0,74.8,98.0,-1.7,-0.2,1.08,GOOD
1790983993790,1368,1929.0,-138.98371203364002,32000.0,74.8,98.0,-1.7,-0.2,1.08,GOOD
1790983993790,1369,1935.0,-136.936301152556,32000.0,74.8,98.0,-1.7,-0.2,1.08,GOOD
1790983993790,1370,1947.0,-124.19832074334305,32000.0,74.8,98.0,-1.7,-0.2,1.08,GOOD
1790983993790,1371,2013.0,-104.30394715805392,32000.0,74.8,98.0,-1.7,-0.2,1.08,GOOD
1790983993790,1372,1999.0,-83.4108643644229,32000.0,74.8,98.0,-1.7,-0.2,1.08,GOOD
1790983993790,1373,1993.0,-66.59613269903745,32000.0,74.8,98.0,-1.7,-0.2,1.08,GOOD
1790983993790,1374,1989.0,-54.71976432323417,32000.0,74.8,98.0,-1.7,-0.2,1.08,GOOD
1790983993790,1375,1980.0,-45.52269720012291,32000.0,74.8,98.0,-1.7,-0.2,1.08,GOOD
1790983993928,1376,1982.0,-41.11982694775904,32000.0,74.8,98.0,-1.8,-0.3,1.08,GOOD
1790983993928,1377,1987.0,-46.00792679364667,32000.0,74.8,98.0,-1.8,-0.3,1.08,GOOD
1790983993928,1378,1975.0,-57.22897061211242,32000.0,74.8,98.0,-1.8,-0.3,1.08,GOOD
1790983993928,1379,2030.0,-62.888748878075724,32000.0,74.8,98.0,-1.8,-0.3,1.08,GOOD
1790983993928,1380,2042.0,-51.68693286002873,32000.0,74.8,98.0,-1.8,-0.3,1.08,GOOD
1790983993928,1381,2045.0,-26.648431907264534,32000.0,74.8,98.0,-1.8,-0.3,1.08,GOOD
1790983993928,1382,2041.0,-3.768695245558396,32000.0,74.8,98.0,-1.8,-0.3,1.08,GOOD
1790983993928,1383,1933.0,2.4982411105676796,32000.0,74.8,98.0,-1.8,-0.3,1.08,GOOD
1790983993928,1384,1930.0,-13.536156830355042,32000.0,74.8,98.0,-1.8,-0.3,1.08,GOOD
1790983993928,1385,1937.0,-44.9593321796198,32000.0,74.8,98.0,-1.8,-0.3,1.08,GOOD
1790983993928,1386,1933.0,-77.02549944854623,32000.0,74.8,98.0,-1.8,-0.3,1.08,GOOD
1790983993928,1387,1966.0,-99.14042750010718,32000.0,74.8,98.0,-1.8,-0.3,1.08,GOOD
1790983993928,1388,1963.0,-104.98952730704764,32000.0,74.8,98.0,-1.8,-0.3,1.08,GOOD
1790983993928,1389,1958.0,-92.94945965023913,32000.0,74.8,98.0,-1.8,-0.3,1.08,GOOD
1790983993928,1390,1963.0,-71.65070093863184,32000.0,74.8,98.0,-1.8,-0.3,1.08,GOOD
1790983993928,1391,2038.0,-52.29509542383837,32000.0,74.8,98.0,-1.8,-0.3,1.08,GOOD
1790983993928,1392,2022.0,-37.143806933378144,32000.0,74.8,98.0,-1.8,-0.3,1.08,GOOD
1790983993928,1393,2021.0,-23.396283525916143,32000.0,74.8,98.0,-1.8,-0.3,1.08,GOOD
1790983993928,1394,2026.0,-9.616755784467406,32000.0,74.8,98.0,-1.8,-0.3,1.08,GOOD
1790983993928,1395,2011.0,3.165902385766853,32000.0,74.8,98.0,-1.8,-0.3,1.08,GOOD
1790983993928,1396,2009.0,9.032092013676372,32000.0,74.8,98.0,-1.8,-0.3,1.08,GOOD
1790983993928,1397,2016.0,3.246048370738446,32000.0,74.8,98.0,-1.8,-0.3,1.08,GOOD
1790983993928,1398,2007.0,-8.61201989089959,32000.0,74.8,98.0,-1.8,-0.3,1.08,GOOD
1790983993928,1399,2009.0,-15.835309237782038,32000.0,74.8,98.0,-1.8,-0.3,1.08,GOOD
1790983993928,1400,2015.0,-13.968923585554332,32000.0,74.8,98.0,-1.8,-0.3,1.08,GOOD
1790983994016,1401,2015.0,-7.803503310028627,32000.0,85.3,98.0,-1.7,-0.3,1.09,GOOD
1790983994016,1402,2013.0,-4.7886635236457105,32000.0,85.3,98.0,-1.7,-0.3,1.09,GOOD
1790983994016,1403,1974.0,-7.933647160762492,32000.0,85.3,98.0,-1.7,-0.3,1.09,GOOD
1790983994016,1404,1982.0,-15.401326816275464,32000.0,85.3,98.0,-1.7,-0.3,1.09,GOOD
1790983994016,1405,1957.0,-24.291160562710132,32000.0,85.3,98.0,-1.7,-0.3,1.09,GOOD
1790983994016,1406,1952.0,-34.932183296789184,32000.0,85.3,98.0,-1.7,-0.3,1.09,GOOD
1790983994016,1407,1983.0,-47.487404960604444,32000.0,85.3,98.0,-1.7,-0.3,1.09,GOOD
1790983994016,1408,1975.0,-55.54651864596849,32000.0,85.3,98.0,-1.7,-0.3,1.09,GOOD
1790983994016,1409,1976.0,-53.05287728180782,32000.0,85.3,98.0,-1.7,-0.3,1.09,GOOD
1790983994016,1410,1978.0,-42.81152676468163,32000.0,85.3,98.0,-1.7,-0.3,1.09,GOOD
1790983994016,1411,2075.0,-28.99109287947942,32000.0,85.3,98.0,-1.7,-0.3,1.09,GOOD
1790983994016,1412,2055.0,-9.603109530904364,32000.0,85.3,98.0,-1.7,-0.3,1.09,GOOD
1790983994016,1413,2052.0,14.422416333394365,32000.0,85.3,98.0,-1.7,-0.3,1.09,GOOD
1790983994016,1414,2059.0,35.720260205078354,32000.0,85.3,98.0,-1.7,-0.3,1.09,GOOD
1790983994016,1415,2080.0,50.627308921286684,32000.0,85.3,98.0,-1.7,-0.3,1.09,GOOD
1790983994016,1416,2083.0,60.030388844139125,32000.0,85.3,98.0,-1.7,-0.3,1.09,GOOD
1790983994016,1417,2075.0,63.83853491832979,32000.0,85.3,98.0,-1.7,-0.3,1.09,GOOD
1790983994016,1418,2082.0,62.91457529504796,32000.0,85.3,98.0,-1.7,-0.3,1.09,GOOD
1790983994016,1419,1984.0,58.11329742818886,32000.0,85.3,98.0,-1.7,-0.3,1.09,GOOD
1790983994016,1420,1998.0,44.850069726466224,32000.0,85.3,98.0,-1.7,-0.3,1.09,GOOD
1790983994016,1421,1991.0,20.962731062110848,32000.0,85.3,98.0,-1.7,-0.3,1.09,GOOD
1790983994016,1422,1973.0,-6.8225792543485735,32000.0,85.3,98.0,-1.7,-0.3,1.09,GOOD
1790983994016,1423,1950.0,-31.338142585756053,32000.0,85.3,98.0,-1.7,-0.3,1.09,GOOD
1790983994016,1424,1967.0,-47.97395079489994,32000.0,85.3,98.0,-1.7,-0.3,1.09,GOOD
1790983994016,1425,1974.0,-52.975964967980836,32000.0,85.3,98.0,-1.7,-0.3,1.09,GOOD
1790983994016,1426,1967.0,-48.38282522519656,32000.0,85.3,98.0,-1.7,-0.3,1.09,GOOD
1790983994016,1427,1928.0,-44.19491473763658,32000.0,85.3,98.0,-1.7,-0.3,1.09,GOOD
1790983994016,1428,1922.0,-49.37754428505822,32000.0,85.3,98.0,-1.7,-0.3,1.09,GOOD
1790983994016,1429,1931.0,-61.76817310857152,32000.0,85.3,98.0,-1.7,-0.3,1.09,GOOD
1790983994016,1430,1935.0,-71.94438267725322,32000.0,85.3,98.0,-1.7,-0.3,1.09,GOOD
1790983994016,1431,1989.0,-73.25913300353903,32000.0,85.3,98.0,-1.7,-0.3,1.09,GOOD
1790983994016,1432,1974.0,-64.0157752073954,32000.0,85.3,98.0,-1.7,-0.3,1.09,GOOD
1790983994016,1433,1975.0,-47.669872842453685,32000.0,85.3,98.0,-1.7,-0.3,1.09,GOOD
1790983994016,1434,1983.0,-30.67141432201824,32000.0,85.3,98.0,-1.7,-0.3,1.09,GOOD
1790983994016,1435,2281.0,-5.796433938223202,32000.0,85.3,98.0,-1.7,-0.3,1.09,GOOD
1790983994016,1436,2288.0,50.54656025568413,32000.0,85.3,98.0,-1.7,-0.3,1.09,GOOD
1790983994016,1437,2303.0,140.06890347107773,32000.0,85.3,98.0,-1.7,-0.3,1.09,GOOD
1790983994016,1438,2333.0,231.86961361760646,32000.0,85.3,98.0,-1.7,-0.3,1.09,GOOD
1790983994016,1439,2642.0,312.30227193107476,32000.0,85.3,98.0,-1.7,-0.3,1.09,GOOD
1790983994016,1440,2618.0,398.8695218449601,32000.0,85.3,98.0,-1.7,-0.3,1.09,GOOD
1790983994016,1441,2605.0,489.2256550714425,32000.0,85.3,98.0,-1.7,-0.3,1.09,GOOD
