timestamp_ms,sample_seq,ecg_raw,ecg_cleaned,ppg_dc_ir,ecg_bpm,spo2_pct,pitch_deg,roll_deg,motion_g,signal_quality
1790978385400,1,2325.0,91.49198354767213,-792.0,92.2,98.0,-1.4,-0.3,1.08,GOOD
1790978385400,2,2293.0,477.207564063885,-792.0,92.2,98.0,-1.4,-0.3,1.08,GOOD
1790978385400,3,2309.0,1163.9797370762244,-792.0,92.2,98.0,-1.4,-0.3,1.08,GOOD
1790978385400,4,2327.0,1860.4429356273636,-791.0,92.2,98.0,-1.4,-0.3,1.08,GOOD
1790978385400,5,2284.0,2309.830901952898,-789.0,92.2,98.0,-1.4,-0.3,1.08,GOOD
1790978385400,6,2258.0,2450.800888615976,-788.0,92.2,98.0,-1.4,-0.3,1.08,GOOD
1790978385400,7,2193.0,2340.3089550620534,-787.0,92.2,98.0,-1.4,-0.3,1.08,GOOD
1790978385400,8,2186.0,2105.5925483942206,-784.0,92.2,98.0,-1.4,-0.3,1.08,GOOD
1790978385400,9,2148.0,1899.8678348397682,-765.0,92.2,98.0,-1.4,-0.3,1.08,GOOD
1790978385400,10,2118.0,1812.9987365673976,-763.0,92.2,98.0,-1.4,-0.3,1.08,GOOD
1790978385400,11,2068.0,1811.2727001671005,-763.0,92.2,98.0,-1.4,-0.3,1.08,GOOD
1790978385400,12,2043.0,1793.8620946320125,-760.0,92.2,98.0,-1.4,-0.3,1.08,GOOD
1790978385400,13,2010.0,1711.008895939948,-763.0,92.2,98.0,-1.4,-0.3,1.08,GOOD
1790978385400,14,1969.0,1605.0882567178983,-761.0,92.2,98.0,-1.4,-0.3,1.08,GOOD
1790978385400,15,1966.0,1538.2635251191077,-760.0,92.2,98.0,-1.4,-0.3,1.08,GOOD
1790978385400,16,1987.0,1513.6938666010788,-757.0,92.2,98.0,-1.4,-0.3,1.08,GOOD
1790978385400,17,1987.0,1485.6628048303537,-755.0,92.2,98.0,-1.4,-0.3,1.08,GOOD
1790978385400,18,1866.0,1424.5402713568456,-753.0,92.2,98.0,-1.4,-0.3,1.08,GOOD
1790978385400,19,1969.0,1352.5489015239011,-749.0,92.2,98.0,-1.4,-0.3,1.08,GOOD
1790978385400,20,1961.0,1315.491800768515,-749.0,92.2,98.0,-1.4,-0.3,1.08,GOOD
1790978385400,21,1953.0,1317.1372775315936,-747.0,92.2,98.0,-1.4,-0.3,1.08,GOOD
1790978385400,22,1929.0,1309.1947795820765,-743.0,92.2,98.0,-1.4,-0.3,1.08,GOOD
1790978385400,23,1682.0,1252.1033201845944,-740.0,92.2,98.0,-1.4,-0.3,1.08,GOOD
1790978385400,24,1706.0,1153.296712439101,-737.0,92.2,98.0,-1.4,-0.3,1.08,GOOD
1790978385400,25,1722.0,1054.3534054849767,-733.0,92.2,98.0,-1.4,-0.3,1.08,GOOD
1790978385400,26,1830.0,988.1100048256836,32000.0,92.2,98.0,-1.4,-0.3,1.08,GOOD
1790978385400,27,1671.0,946.0268409846086,32000.0,92.2,98.0,-1.4,-0.3,1.08,GOOD
1790978385400,28,1714.0,902.8763353691052,32000.0,92.2,98.0,-1.4,-0.3,1.08,GOOD
1790978385400,29,1726.0,864.5539355412667,32000.0,92.2,98.0,-1.4,-0.3,1.08,GOOD
1790978385400,30,1696.0,852.7597336954569,32000.0,92.2,98.0,-1.4,-0.3,1.08,GOOD
1790978385400,31,1694.0,852.3595060256292,32000.0,92.2,98.0,-1.4,-0.3,1.08,GOOD
1790978385400,32,1763.0,829.6936083954146,32000.0,92.2,98.0,-1.4,-0.3,1.08,GOOD
1790978385400,33,1916.0,794.9746121082383,32000.0,92.2,98.0,-1.4,-0.3,1.08,GOOD
1790978385400,34,1992.0,799.6151493691218,32000.0,92.2,98.0,-1.4,-0.3,1.08,GOOD
1790978385400,35,1992.0,865.8820843490782,32000.0,92.2,98.0,-1.4,-0.3,1.08,GOOD
1790978385400,36,1958.0,949.2381893344843,32000.0,92.2,98.0,-1.4,-0.3,1.08,GOOD
1790978385400,37,1958.0,986.6251813422775,32000.0,92.2,98.0,-1.4,-0.3,1.08,GOOD
1790978385400,38,1971.0,962.9648662240742,32000.0,92.2,98.0,-1.4,-0.3,1.08,GOOD
1790978385400,39,1963.0,913.8045836027023,32000.0,92.2,98.0,-1.4,-0.3,1.08,GOOD
1790978385400,40,1961.0,875.275323022492,32000.0,92.2,98.0,-1.4,-0.3,1.08,GOOD
1790978385400,41,1975.0,852.2556109335637,32000.0,92.2,98.0,-1.4,-0.3,1.08,GOOD
1790978385400,42,2009.0,833.0908297319887,32000.0,92.2,98.0,-1.4,-0.3,1.08,GOOD
1790978385400,43,2012.0,814.6932833542426,32000.0,92.2,98.0,-1.4,-0.3,1.08,GOOD
1790978385400,44,2004.0,802.767923582446,32000.0,92.2,98.0,-1.4,-0.3,1.08,GOOD
1790978385400,45,1992.0,796.6919047481597,32000.0,92.2,98.0,-1.4,-0.3,1.08,GOOD
1790978385400,46,1961.0,784.6431192109296,32000.0,92.2,98.0,-1.4,-0.3,1.08,GOOD
1790978385400,47,1977.0,755.760185895266,32000.0,92.2,98.0,-1.4,-0.3,1.08,GOOD
1790978385400,48,2010.0,716.1059936471261,32000.0,92.2,98.0,-1.4,-0.3,1.08,GOOD
1790978385400,49,2006.0,684.2814161537581,32000.0,92.2,98.0,-1.4,-0.3,1.08,GOOD
1790978385400,50,1986.0,668.4376646101252,32000.0,92.2,98.0,-1.4,-0.3,1.08,GOOD
1790978385675,51,1971.0,658.1509684896125,32000.0,92.2,98.0,-1.4,-0.2,1.08,GOOD
1790978385675,52,1872.0,636.0301125293106,32000.0,92.2,98.0,-1.4,-0.2,1.08,GOOD
1790978385675,53,1991.0,595.6987621727845,32000.0,92.2,98.0,-1.4,-0.2,1.08,GOOD
1790978385675,54,1984.0,553.8682638426417,32000.0,92.2,98.0,-1.4,-0.2,1.08,GOOD
1790978385675,55,1977.0,529.7838047482521,32000.0,92.2,98.0,-1.4,-0.2,1.08,GOOD
1790978385675,56,2008.0,522.780124987092,32000.0,92.2,98.0,-1.4,-0.2,1.08,GOOD
1790978385675,57,2029.0,524.9395707023557,32000.0,92.2,98.0,-1.4,-0.2,1.08,GOOD
1790978385675,58,2048.0,531.2686305977793,32000.0,92.2,98.0,-1.4,-0.2,1.08,GOOD
1790978385675,59,2019.0,533.6819352021803,32000.0,92.2,98.0,-1.4,-0.2,1.08,GOOD
1790978385675,60,1990.0,521.9024209993156,32000.0,92.2,98.0,-1.4,-0.2,1.08,GOOD
1790978385675,61,1776.0,485.42795810366806,32000.0,92.2,98.0,-1.4,-0.2,1.08,GOOD
1790978385675,62,1765.0,415.09701952825,32000.0,92.2,98.0,-1.4,-0.2,1.08,GOOD
1790978385675,63,1760.0,319.30277599070416,32000.0,92.2,98.0,-1.4,-0.2,1.08,GOOD
1790978385675,64,1767.0,225.6085703332057,32000.0,92.2,98.0,-1.4,-0.2,1.08,GOOD
1790978385675,65,1791.0,157.83437418072094,32000.0,92.2,98.0,-1.4,-0.2,1.08,GOOD
1790978385675,66,1833.0,128.3935417228676,32000.0,92.2,98.0,-1.4,-0.2,1.08,GOOD
1790978385675,67,1778.0,136.24184412006787,32000.0,92.2,98.0,-1.4,-0.2,1.08,GOOD
1790978385675,68,1834.0,160.45746155053902,32000.0,92.2,98.0,-1.4,-0.2,1.08,GOOD
1790978385675,69,1840.0,175.42851899307348,32000.0,92.2,98.0,-1.4,-0.2,1.08,GOOD
1790978385675,70,2066.0,180.04548696070458,32000.0,92.2,98.0,-1.4,-0.2,1.08,GOOD
1790978385675,71,2064.0,201.5257036976565,32000.0,92.2,98.0,-1.4,-0.2,1.08,GOOD
1790978385675,72,2059.0,255.36764677566305,32000.0,92.2,98.0,-1.4,-0.2,1.08,GOOD
1790978385675,73,2085.0,319.58734340040127,32000.0,92.2,98.0,-1.4,-0.2,1.08,GOOD
1790978385675,74,1974.0,357.07966531619957,32000.0,92.2,98.0,-1.4,-0.2,1.08,GOOD
1790978385675,75,2005.0,343.69884341538864,32000.0,92.2,98.0,-1.4,-0.2,1.08,GOOD
1790978385676,76,2033.0,290.77049986687234,32000.0,92.2,98.0,-1.4,-0.2,1.08,GOOD
1790978385676,77,1879.0,233.0411111666304,32000.0,92.2,98.0,-1.4,-0.2,1.08,GOOD
1790978385676,78,1973.0,188.0492646431748,32000.0,92.2,98.0,-1.4,-0.2,1.08,GOOD
1790978385676,79,2036.0,159.28879079260778,32000.0,92.2,98.0,-1.4,-0.2,1.08,GOOD
1790978385676,80,2045.0,151.14053252488782,32000.0,92.2,98.0,-1.4,-0.2,1.08,GOOD
1790978385676,81,2042.0,158.6338791596685,32000.0,92.2,98.0,-1.4,-0.2,1.08,GOOD
1790978385676,82,2072.0,172.89068134261322,32000.0,92.2,98.0,-1.4,-0.2,1.08,GOOD
1790978385676,83,2084.0,190.80181470127428,32000.0,92.2,98.0,-1.4,-0.2,1.08,GOOD
1790978385676,84,2067.0,204.80696310450918,32000.0,92.2,98.0,-1.4,-0.2,1.08,GOOD
1790978385676,85,2045.0,200.02465785441308,32000.0,92.2,98.0,-1.4,-0.2,1.08,GOOD
1790978385676,86,2039.0,172.19869805307366,32000.0,92.2,98.0,-1.4,-0.2,1.08,GOOD
1790978385676,87,2039.0,137.07544271100267,32000.0,92.2,98.0,-1.4,-0.2,1.08,GOOD
1790978385676,88,2038.0,112.72939372044081,32000.0,92.2,98.0,-1.4,-0.2,1.08,GOOD
1790978385676,89,2035.0,99.63974117406923,32000.0,92.2,98.0,-1.4,-0.2,1.08,GOOD
1790978385676,90,2014.0,84.90317897091607,32000.0,92.2,98.0,-1.4,-0.2,1.08,GOOD
1790978385676,91,2060.0,63.59731016940656,32000.0,92.2,98.0,-1.4,-0.2,1.08,GOOD
1790978385676,92,2099.0,49.180978722824115,32000.0,92.2,98.0,-1.4,-0.2,1.08,GOOD
1790978385676,93,2116.0,55.611936705447945,32000.0,92.2,98.0,-1.4,-0.2,1.08,GOOD
1790978385676,94,2082.0,74.49270823801214,32000.0,92.2,98.0,-1.4,-0.2,1.08,GOOD
1790978385676,95,2061.0,81.98422874637619,32000.0,92.2,98.0,-1.4,-0.2,1.08,GOOD
1790978385676,96,2103.0,68.19870385467624,32000.0,92.2,98.0,-1.4,-0.2,1.08,GOOD
1790978385676,97,2120.0,48.330701412982634,32000.0,92.2,98.0,-1.4,-0.2,1.08,GOOD
1790978385676,98,2116.0,39.23910666139801,32000.0,92.2,98.0,-1.4,-0.2,1.08,GOOD
1790978385676,99,1991.0,33.84539687144819,32000.0,92.2,98.0,-1.4,-0.2,1.08,GOOD
1790978385676,100,1798.0,2.407938170081989,32000.0,92.2,98.0,-1.4,-0.2,1.08,GOOD
1790978386629,101,1778.0,-76.73137734224024,-479.0,91.5,98.0,-1.7,-0.1,1.08,GOOD
1790978386629,102,1822.0,-184.3037550486312,-476.0,91.5,98.0,-1.7,-0.1,1.08,GOOD
1790978386629,103,1849.0,-274.31593530351296,-471.0,91.5,98.0,-1.7,-0.1,1.08,GOOD
1790978386629,104,1871.0,-318.1427628004444,-473.0,91.5,98.0,-1.7,-0.1,1.08,GOOD
1790978386629,105,1688.0,-324.8759673135553,-470.0,91.5,98.0,-1.7,-0.1,1.08,GOOD
1790978386629,106,1789.0,-324.31598206657867,-466.0,91.5,98.0,-1.7,-0.1,1.08,GOOD
1790978386629,107,1780.0,-331.04441653558115,-463.0,91.5,98.0,-1.7,-0.1,1.08,GOOD
1790978386629,108,1734.0,-344.1721430084299,-461.0,91.5,98.0,-1.7,-0.1,1.08,GOOD
1790978386629,109,1752.0,-366.94301822567115,-459.0,91.5,98.0,-1.7,-0.1,1.08,GOOD
1790978386629,110,1902.0,-387.47574618363353,-458.0,91.5,98.0,-1.7,-0.1,1.08,GOOD
1790978386629,111,2047.0,-369.38941650162116,-455.0,91.5,98.0,-1.7,-0.1,1.08,GOOD
1790978386629,112,1986.0,-297.99704106643765,-456.0,91.5,98.0,-1.7,-0.1,1.08,GOOD
1790978386629,113,1934.0,-214.33181373707538,-454.0,91.5,98.0,-1.7,-0.1,1.08,GOOD
1790978386629,114,1867.0,-174.80553995758802,-452.0,91.5,98.0,-1.7,-0.1,1.08,GOOD
1790978386629,115,1842.0,-195.20685934009842,-449.0,91.5,98.0,-1.7,-0.1,1.08,GOOD
1790978386629,116,1803.0,-252.07053487112847,-446.0,91.5,98.0,-1.7,-0.1,1.08,GOOD
1790978386629,117,1896.0,-312.66429296582123,-442.0,91.5,98.0,-1.7,-0.1,1.08,GOOD
1790978386629,118,1835.0,-353.0151902524085,-442.0,91.5,98.0,-1.7,-0.1,1.08,GOOD
1790978386629,119,1808.0,-369.2409362065313,-436.0,91.5,98.0,-1.7,-0.1,1.08,GOOD
1790978386629,120,1830.0,-371.90242363231516,-437.0,91.5,98.0,-1.7,-0.1,1.08,GOOD
1790978386629,121,1905.0,-365.9051101680975,-430.0,91.5,98.0,-1.7,-0.1,1.08,GOOD
1790978386629,122,1938.0,-349.80548299366546,-429.0,91.5,98.0,-1.7,-0.1,1.08,GOOD
1790978386629,123,1991.0,-325.56100001348216,-428.0,91.5,98.0,-1.7,-0.1,1.08,GOOD
1790978386629,124,1974.0,-296.42200987054775,-427.0,91.5,98.0,-1.7,-0.1,1.08,GOOD
1790978386629,125,1966.0,-266.12756980336457,-424.0,91.5,98.0,-1.7,-0.1,1.08,GOOD
1790978386629,126,2031.0,-240.58549140441906,32000.0,91.5,98.0,-1.7,-0.1,1.08,GOOD
1790978386629,127,2008.0,-225.03431091049615,32000.0,91.5,98.0,-1.7,-0.1,1.08,GOOD
1790978386629,128,2033.0,-222.63527320570094,32000.0,91.5,98.0,-1.7,-0.1,1.08,GOOD
1790978386629,129,2004.0,-229.73197658830932,32000.0,91.5,98.0,-1.7,-0.1,1.08,GOOD
1790978386629,130,2156.0,-230.3120079268722,32000.0,91.5,98.0,-1.7,-0.1,1.08,GOOD
1790978386629,131,2174.0,-206.13254316680613,32000.0,91.5,98.0,-1.7,-0.1,1.08,GOOD
1790978386629,132,2176.0,-161.19501213378447,32000.0,91.5,98.0,-1.7,-0.1,1.08,GOOD
1790978386629,133,2189.0,-120.81839614119704,32000.0,91.5,98.0,-1.7,-0.1,1.08,GOOD
1790978386629,134,2222.0,-98.04190021955472,32000.0,91.5,98.0,-1.7,-0.1,1.08,GOOD
1790978386629,135,2265.0,-82.8630891205345,32000.0,91.5,98.0,-1.7,-0.1,1.08,GOOD
1790978386629,136,2280.0,-64.80177477186693,32000.0,91.5,98.0,-1.7,-0.1,1.08,GOOD
1790978386629,137,2292.0,-47.432525555322165,32000.0,91.5,98.0,-1.7,-0.1,1.08,GOOD
1790978386629,138,2282.0,-38.81438792933281,32000.0,91.5,98.0,-1.7,-0.1,1.08,GOOD
1790978386629,139,2184.0,-42.63574424734193,32000.0,91.5,98.0,-1.7,-0.1,1.08,GOOD
1790978386629,140,2147.0,-63.27253523387033,32000.0,91.5,98.0,-1.7,-0.1,1.08,GOOD
1790978386629,141,2095.0,-105.1574383746333,32000.0,91.5,98.0,-1.7,-0.1,1.08,GOOD
1790978386629,142,2208.0,-160.24093820935798,32000.0,91.5,98.0,-1.7,-0.1,1.08,GOOD
1790978386629,143,2204.0,-203.53230908436768,32000.0,91.5,98.0,-1.7,-0.1,1.08,GOOD
1790978386629,144,2186.0,-215.0596047512255,32000.0,91.5,98.0,-1.7,-0.1,1.08,GOOD
1790978386629,145,2129.0,-202.40846602651226,32000.0,91.5,98.0,-1.7,-0.1,1.08,GOOD
1790978386629,146,1971.0,-197.25627718558016,32000.0,91.5,98.0,-1.7,-0.1,1.08,GOOD
1790978386629,147,1860.0,-236.43533423312584,32000.0,91.5,98.0,-1.7,-0.1,1.08,GOOD
1790978386629,148,1839.0,-330.33808689915645,32000.0,91.5,98.0,-1.7,-0.1,1.08,GOOD
1790978386629,149,1831.0,-445.8884769451618,32000.0,91.5,98.0,-1.7,-0.1,1.08,GOOD
1790978386629,150,1858.0,-534.2079519938592,32000.0,91.5,98.0,-1.7,-0.1,1.08,GOOD
1790978387103,151,1851.0,-570.1395705718384,-384.0,85.7,98.0,-1.5,-0.4,1.08,GOOD
1790978387103,152,1797.0,-565.8916005554285,-385.0,85.7,98.0,-1.5,-0.4,1.08,GOOD
1790978387103,153,1804.0,-553.3330164906013,-380.0,85.7,98.0,-1.5,-0.4,1.08,GOOD
1790978387103,154,1825.0,-551.6172985979093,-377.0,85.7,98.0,-1.5,-0.4,1.08,GOOD
1790978387103,155,1784.0,-558.6760702963003,-375.0,85.7,98.0,-1.5,-0.4,1.08,GOOD
1790978387103,156,1744.0,-570.4327806152321,-368.0,85.7,98.0,-1.5,-0.4,1.08,GOOD
1790978387103,157,1671.0,-590.656731143087,-367.0,85.7,98.0,-1.5,-0.4,1.08,GOOD
1790978387103,158,1663.0,-622.7462349148439,-364.0,85.7,98.0,-1.5,-0.4,1.08,GOOD
1790978387103,159,1682.0,-660.1210966192971,-360.0,85.7,98.0,-1.5,-0.4,1.08,GOOD
1790978387103,160,1774.0,-685.2467856688904,-361.0,85.7,98.0,-1.5,-0.4,1.08,GOOD
1790978387103,161,1918.0,-675.7826537614262,-358.0,85.7,98.0,-1.5,-0.4,1.08,GOOD
1790978387103,162,1970.0,-617.9639291442719,-356.0,85.7,98.0,-1.5,-0.4,1.08,GOOD
1790978387103,163,2088.0,-520.2616927114616,-354.0,85.7,98.0,-1.5,-0.4,1.08,GOOD
1790978387103,164,2013.0,-412.2684306960992,-353.0,85.7,98.0,-1.5,-0.4,1.08,GOOD
1790978387103,165,1839.0,-339.2135220859177,-349.0,85.7,98.0,-1.5,-0.4,1.08,GOOD
1790978387103,166,1776.0,-341.70243055600326,-347.0,85.7,98.0,-1.5,-0.4,1.08,GOOD
1790978387103,167,1954.0,-408.90173305246947,-345.0,85.7,98.0,-1.5,-0.4,1.08,GOOD
1790978387103,168,1919.0,-477.9727100719631,-341.0,85.7,98.0,-1.5,-0.4,1.08,GOOD
1790978387103,169,1927.0,-503.2563216362374,-331.0,85.7,98.0,-1.5,-0.4,1.08,GOOD
1790978387103,170,1869.0,-491.100020538129,-329.0,85.7,98.0,-1.5,-0.4,1.08,GOOD
1790978387103,171,1910.0,-467.6391971325477,-326.0,85.7,98.0,-1.5,-0.4,1.08,GOOD
1790978387103,172,1911.0,-449.2795092802721,-318.0,85.7,98.0,-1.5,-0.4,1.08,GOOD
1790978387103,173,1887.0,-443.2327824574986,-314.0,85.7,98.0,-1.5,-0.4,1.08,GOOD
1790978387103,174,1909.0,-451.1941019532118,-312.0,85.7,98.0,-1.5,-0.4,1.08,GOOD
1790978387103,175,1935.0,-462.0734905103928,-308.0,85.7,98.0,-1.5,-0.4,1.08,GOOD
1790978387103,176,1944.0,-458.73908586301735,32000.0,85.7,98.0,-1.5,-0.4,1.08,GOOD
1790978387103,177,1962.0,-438.5692962048968,32000.0,85.7,98.0,-1.5,-0.4,1.08,GOOD
1790978387103,178,1934.0,-416.2178954488336,32000.0,85.7,98.0,-1.5,-0.4,1.08,GOOD
1790978387103,179,1934.0,-407.03721677362466,32000.0,85.7,98.0,-1.5,-0.4,1.08,GOOD
1790978387103,180,1919.0,-412.12553824187546,32000.0,85.7,98.0,-1.5,-0.4,1.08,GOOD
1790978387103,181,1916.0,-421.5030977855792,32000.0,85.7,98.0,-1.5,-0.4,1.08,GOOD
1790978387103,182,1873.0,-430.12561902176844,32000.0,85.7,98.0,-1.5,-0.4,1.08,GOOD
1790978387103,183,1913.0,-441.2922859046687,32000.0,85.7,98.0,-1.5,-0.4,1.08,GOOD
1790978387103,184,1944.0,-452.38676671225556,32000.0,85.7,98.0,-1.5,-0.4,1.08,GOOD
1790978387103,185,1889.0,-454.50241873560464,32000.0,85.7,98.0,-1.5,-0.4,1.08,GOOD
1790978387103,186,1984.0,-444.81394101512933,32000.0,85.7,98.0,-1.5,-0.4,1.08,GOOD
1790978387103,187,1999.0,-423.46018637624474,32000.0,85.7,98.0,-1.5,-0.4,1.08,GOOD
1790978387103,188,1963.0,-395.41346778049456,32000.0,85.7,98.0,-1.5,-0.4,1.08,GOOD
1790978387103,189,2027.0,-372.9390051630543,32000.0,85.7,98.0,-1.5,-0.4,1.08,GOOD
1790978387103,190,1995.0,-359.36994626471756,32000.0,85.7,98.0,-1.5,-0.4,1.08,GOOD
1790978387103,191,1945.0,-351.90264819439767,32000.0,85.7,98.0,-1.5,-0.4,1.08,GOOD
1790978387103,192,1930.0,-355.5870010547106,32000.0,85.7,98.0,-1.5,-0.4,1.08,GOOD
1790978387103,193,1905.0,-374.91609206667204,32000.0,85.7,98.0,-1.5,-0.4,1.08,GOOD
1790978387103,194,1883.0,-405.355430409394,32000.0,85.7,98.0,-1.5,-0.4,1.08,GOOD
1790978387103,195,1969.0,-433.42429529973845,32000.0,85.7,98.0,-1.5,-0.4,1.08,GOOD
1790978387103,196,1980.0,-440.44016899612507,32000.0,85.7,98.0,-1.5,-0.4,1.08,GOOD
1790978387103,197,1933.0,-422.1563644646376,32000.0,85.7,98.0,-1.5,-0.4,1.08,GOOD
1790978387103,198,1854.0,-400.9410104533771,32000.0,85.7,98.0,-1.5,-0.4,1.08,GOOD
1790978387103,199,1866.0,-402.2960217403396,32000.0,85.7,98.0,-1.5,-0.4,1.08,GOOD
1790978387103,200,1893.0,-425.8859647830958,32000.0,85.7,98.0,-1.5,-0.4,1.08,GOOD
1790978387104,201,2064.0,-444.4020551088357,32000.0,85.7,98.0,-1.5,-0.4,1.08,GOOD
1790978387104,202,2306.0,-417.9594397573866,32000.0,85.7,98.0,-1.5,-0.4,1.08,GOOD
1790978387104,203,2556.0,-313.3242815820395,32000.0,85.7,98.0,-1.5,-0.4,1.08,GOOD
1790978387104,204,2713.0,-128.930979568473,32000.0,85.7,98.0,-1.5,-0.4,1.08,GOOD
1790978387104,205,2730.0,92.21747061368134,32000.0,85.7,98.0,-1.5,-0.4,1.08,GOOD
1790978387104,206,2762.0,283.04865218393866,32000.0,85.7,98.0,-1.5,-0.4,1.08,GOOD
1790978387104,207,2505.0,386.3123974451306,32000.0,85.7,98.0,-1.5,-0.4,1.08,GOOD
1790978387104,208,2450.0,373.87424808742344,32000.0,85.7,98.0,-1.5,-0.4,1.08,GOOD
1790978387104,209,2238.0,259.4359802026752,32000.0,85.7,98.0,-1.5,-0.4,1.08,GOOD
1790978387104,210,2002.0,83.07979669868384,32000.0,85.7,98.0,-1.5,-0.4,1.08,GOOD
1790978387104,211,1811.0,-123.13450852552694,32000.0,85.7,98.0,-1.5,-0.4,1.08,GOOD
1790978387104,212,1667.0,-336.28875005224626,32000.0,85.7,98.0,-1.5,-0.4,1.08,GOOD
1790978387104,213,1883.0,-520.2681286288267,32000.0,85.7,98.0,-1.5,-0.4,1.08,GOOD
1790978387104,214,1921.0,-624.2403891488659,32000.0,85.7,98.0,-1.5,-0.4,1.08,GOOD
1790978387104,215,1836.0,-630.3709096770813,32000.0,85.7,98.0,-1.5,-0.4,1.08,GOOD
1790978387104,216,1872.0,-579.7343739744434,32000.0,85.7,98.0,-1.5,-0.4,1.08,GOOD
1790978387104,217,1908.0,-521.3227147777379,32000.0,85.7,98.0,-1.5,-0.4,1.08,GOOD
1790978387104,218,1987.0,-473.8525940615432,32000.0,85.7,98.0,-1.5,-0.4,1.08,GOOD
1790978387104,219,2029.0,-437.67703147665526,32000.0,85.7,98.0,-1.5,-0.4,1.08,GOOD
1790978387104,220,2014.0,-408.8657324839072,32000.0,85.7,98.0,-1.5,-0.4,1.08,GOOD
1790978387104,221,2004.0,-383.4456389500917,32000.0,85.7,98.0,-1.5,-0.4,1.08,GOOD
1790978387104,222,2112.0,-355.4785335529241,32000.0,85.7,98.0,-1.5,-0.4,1.08,GOOD
1790978387104,223,2141.0,-318.88970385666755,32000.0,85.7,98.0,-1.5,-0.4,1.08,GOOD
1790978387104,224,2118.0,-280.6634549925226,32000.0,85.7,98.0,-1.5,-0.4,1.08,GOOD
1790978387104,225,2070.0,-258.6147138994642,32000.0,85.7,98.0,-1.5,-0.4,1.08,GOOD
1790978387626,226,1916.0,-264.0613915536573,-329.0,90.0,98.0,-1.5,-0.3,1.08,GOOD
1790978387626,227,1784.0,-303.3614934372837,-329.0,90.0,98.0,-1.5,-0.3,1.08,GOOD
1790978387626,228,1799.0,-378.95001233684764,-330.0,90.0,98.0,-1.5,-0.3,1.08,GOOD
1790978387626,229,1924.0,-468.8782835002344,-330.0,90.0,98.0,-1.5,-0.3,1.08,GOOD
1790978387626,230,2090.0,-522.209510984485,-332.0,90.0,98.0,-1.5,-0.3,1.08,GOOD
1790978387626,231,2336.0,-486.5787028493724,-336.0,90.0,98.0,-1.5,-0.3,1.08,GOOD
1790978387626,232,2360.0,-348.94097561129803,-337.0,90.0,98.0,-1.5,-0.3,1.08,GOOD
1790978387626,233,2141.0,-170.75884728880007,-336.0,90.0,98.0,-1.5,-0.3,1.08,GOOD
1790978387626,234,2096.0,-58.91565367638921,-334.0,90.0,98.0,-1.5,-0.3,1.08,GOOD
1790978387626,235,2046.0,-68.85408731734042,-333.0,90.0,98.0,-1.5,-0.3,1.08,GOOD
1790978387626,236,1962.0,-167.06983136364175,-330.0,90.0,98.0,-1.5,-0.3,1.08,GOOD
1790978387626,237,2180.0,-277.3825688285393,-328.0,90.0,98.0,-1.5,-0.3,1.08,GOOD
1790978387626,238,2159.0,-329.8379803298798,-327.0,90.0,98.0,-1.5,-0.3,1.08,GOOD
1790978387626,239,2123.0,-307.8284139014864,-324.0,90.0,98.0,-1.5,-0.3,1.08,GOOD
1790978387626,240,2126.0,-254.17814784252144,-326.0,90.0,98.0,-1.5,-0.3,1.08,GOOD
1790978387626,241,2145.0,-213.38094585880722,-324.0,90.0,98.0,-1.5,-0.3,1.08,GOOD
1790978387626,242,2093.0,-199.44703851845705,-324.0,90.0,98.0,-1.5,-0.3,1.08,GOOD
1790978387626,243,2034.0,-212.29094947524004,-322.0,90.0,98.0,-1.5,-0.3,1.08,GOOD
1790978387626,244,1998.0,-247.9615990920396,-322.0,90.0,98.0,-1.5,-0.3,1.08,GOOD
1790978387626,245,1965.0,-295.07473549643885,-318.0,90.0,98.0,-1.5,-0.3,1.08,GOOD
1790978387626,246,2183.0,-330.55434850027575,-317.0,90.0,98.0,-1.5,-0.3,1.08,GOOD
1790978387626,247,2200.0,-325.2060882805724,-317.0,90.0,98.0,-1.5,-0.3,1.08,GOOD
1790978387626,248,2176.0,-274.95934106642153,-314.0,90.0,98.0,-1.5,-0.3,1.08,GOOD
1790978387626,249,2125.0,-212.94358840347593,-313.0,90.0,98.0,-1.5,-0.3,1.08,GOOD
1790978387626,250,1993.0,-179.22072220735828,-313.0,90.0,98.0,-1.5,-0.3,1.08,GOOD
1790978387627,251,1983.0,-196.193134699012,32000.0,90.0,98.0,-1.5,-0.3,1.08,GOOD
1790978387627,252,2040.0,-255.01755071803413,32000.0,90.0,98.0,-1.5,-0.3,1.08,GOOD
1790978387627,253,2117.0,-315.0668208167533,32000.0,90.0,98.0,-1.5,-0.3,1.08,GOOD
1790978387627,254,2181.0,-332.1187377211992,32000.0,90.0,98.0,-1.5,-0.3,1.08,GOOD
1790978387627,255,2109.0,-294.5399935696637,32000.0,90.0,98.0,-1.5,-0.3,1.08,GOOD
1790978387627,256,2140.0,-232.93310778200947,32000.0,90.0,98.0,-1.5,-0.3,1.08,GOOD
1790978387627,257,2104.0,-189.63369049654733,32000.0,90.0,98.0,-1.5,-0.3,1.08,GOOD
1790978387627,258,2077.0,-185.89787907533463,32000.0,90.0,98.0,-1.5,-0.3,1.08,GOOD
1790978387627,259,2072.0,-214.53510458179662,32000.0,90.0,98.0,-1.5,-0.3,1.08,GOOD
1790978387627,260,2061.0,-249.57481133836419,32000.0,90.0,98.0,-1.5,-0.3,1.08,GOOD
1790978387627,261,2092.0,-268.4703060420153,32000.0,90.0,98.0,-1.5,-0.3,1.08,GOOD
1790978387627,262,2102.0,-267.6497487544252,32000.0,90.0,98.0,-1.5,-0.3,1.08,GOOD
1790978387627,263,2123.0,-256.61779619057336,32000.0,90.0,98.0,-1.5,-0.3,1.08,GOOD
1790978387627,264,2163.0,-241.40830020185297,32000.0,90.0,98.0,-1.5,-0.3,1.08,GOOD
1790978387627,265,2162.0,-218.99203202964446,32000.0,90.0,98.0,-1.5,-0.3,1.08,GOOD
1790978387627,266,2189.0,-189.262278703918,32000.0,90.0,98.0,-1.5,-0.3,1.08,GOOD
1790978387627,267,2167.0,-162.46097828794453,32000.0,90.0,98.0,-1.5,-0.3,1.08,GOOD
1790978387627,268,2185.0,-149.99005286814082,32000.0,90.0,98.0,-1.5,-0.3,1.08,GOOD
1790978387627,269,2222.0,-149.69650272913776,32000.0,90.0,98.0,-1.5,-0.3,1.08,GOOD
1790978387627,270,2222.0,-146.76686674796554,32000.0,90.0,98.0,-1.5,-0.3,1.08,GOOD
1790978387627,271,2116.0,-137.63541981445272,32000.0,90.0,98.0,-1.5,-0.3,1.08,GOOD
1790978387627,272,1943.0,-146.19686288452317,32000.0,90.0,98.0,-1.5,-0.3,1.08,GOOD
1790978387627,273,1969.0,-197.48384251336046,32000.0,90.0,98.0,-1.5,-0.3,1.08,GOOD
1790978387627,274,1937.0,-279.13036337434914,32000.0,90.0,98.0,-1.5,-0.3,1.08,GOOD
1790978387627,275,2017.0,-350.63876130937615,32000.0,90.0,98.0,-1.5,-0.3,1.08,GOOD
1790978388521,276,2113.0,-377.17813923521874,-291.0,90.0,98.0,-1.3,0.0,1.09,GOOD
1790978388521,277,2139.0,-347.0152559545192,-290.0,90.0,98.0,-1.3,0.0,1.09,GOOD
1790978388521,278,2084.0,-280.8217088327733,-289.0,90.0,98.0,-1.3,0.0,1.09,GOOD
1790978388521,279,2053.0,-221.12008216369236,-281.0,90.0,98.0,-1.3,0.0,1.09,GOOD
1790978388521,280,2034.0,-199.42794465086834,-286.0,90.0,98.0,-1.3,0.0,1.09,GOOD
1790978388521,281,2054.0,-216.069383017774,-286.0,90.0,98.0,-1.3,0.0,1.09,GOOD
1790978388521,282,2074.0,-247.4346909062436,-285.0,90.0,98.0,-1.3,0.0,1.09,GOOD
1790978388521,283,2062.0,-267.6861013893144,-285.0,90.0,98.0,-1.3,0.0,1.09,GOOD
1790978388521,284,2081.0,-266.30698461466824,-284.0,90.0,98.0,-1.3,0.0,1.09,GOOD
1790978388521,285,2095.0,-248.65369372083666,-284.0,90.0,98.0,-1.3,0.0,1.09,GOOD
1790978388521,286,2109.0,-226.58021100616108,-282.0,90.0,98.0,-1.3,0.0,1.09,GOOD
1790978388521,287,2092.0,-210.51352582925404,-283.0,90.0,98.0,-1.3,0.0,1.09,GOOD
1790978388521,288,2146.0,-201.90552305017206,-285.0,90.0,98.0,-1.3,0.0,1.09,GOOD
1790978388521,289,2126.0,-192.73782478873733,-286.0,90.0,98.0,-1.3,0.0,1.09,GOOD
1790978388521,290,2118.0,-179.72893856278426,-286.0,90.0,98.0,-1.3,0.0,1.09,GOOD
1790978388521,291,2214.0,-166.80485040845923,-284.0,90.0,98.0,-1.3,0.0,1.09,GOOD
1790978388521,292,2360.0,-145.44707792764848,-283.0,90.0,98.0,-1.3,0.0,1.09,GOOD
1790978388521,293,2545.0,-91.16432860934707,-283.0,90.0,98.0,-1.3,0.0,1.09,GOOD
1790978388521,294,2659.0,12.671234223782818,-282.0,90.0,98.0,-1.3,0.0,1.09,GOOD
1790978388521,295,2839.0,157.64856991014955,-283.0,90.0,98.0,-1.3,0.0,1.09,GOOD
1790978388521,296,2314.0,294.2670167280787,-285.0,90.0,98.0,-1.3,0.0,1.09,GOOD
1790978388521,297,2264.0,335.33871429321556,-283.0,90.0,98.0,-1.3,0.0,1.09,GOOD
1790978388521,298,2201.0,241.469834246431,-281.0,90.0,98.0,-1.3,0.0,1.09,GOOD
1790978388521,299,2124.0,69.45764364360977,-282.0,90.0,98.0,-1.3,0.0,1.09,GOOD
1790978388521,300,2101.0,-100.59841544036601,-283.0,90.0,98.0,-1.3,0.0,1.09,GOOD
1790978388522,301,2050.0,-221.53094385258817,32000.0,90.0,98.0,-1.3,0.0,1.09,GOOD
1790978388522,302,2062.0,-278.5763709825335,32000.0,90.0,98.0,-1.3,0.0,1.09,GOOD
1790978388522,303,2032.0,-284.65274918555895,32000.0,90.0,98.0,-1.3,0.0,1.09,GOOD
1790978388522,304,2028.0,-272.12894092847387,32000.0,90.0,98.0,-1.3,0.0,1.09,GOOD
1790978388522,305,2027.0,-270.4318277869106,32000.0,90.0,98.0,-1.3,0.0,1.09,GOOD
1790978388522,306,2025.0,-283.4408951406067,32000.0,90.0,98.0,-1.3,0.0,1.09,GOOD
1790978388522,307,1998.0,-295.6079788696969,32000.0,90.0,98.0,-1.3,0.0,1.09,GOOD
1790978388522,308,1968.0,-298.4912959206814,32000.0,90.0,98.0,-1.3,0.0,1.09,GOOD
1790978388522,309,1951.0,-301.6900935788495,32000.0,90.0,98.0,-1.3,0.0,1.09,GOOD
1790978388522,310,1951.0,-316.96443235313757,32000.0,90.0,98.0,-1.3,0.0,1.09,GOOD
1790978388522,311,1948.0,-340.20727724683627,32000.0,90.0,98.0,-1.3,0.0,1.09,GOOD
1790978388522,312,1934.0,-355.89929022462286,32000.0,90.0,98.0,-1.3,0.0,1.09,GOOD
1790978388522,313,1795.0,-361.43887287033084,32000.0,90.0,98.0,-1.3,0.0,1.09,GOOD
1790978388522,314,1910.0,-371.72265585228934,32000.0,90.0,98.0,-1.3,0.0,1.09,GOOD
1790978388522,315,1929.0,-388.64464147510944,32000.0,90.0,98.0,-1.3,0.0,1.09,GOOD
1790978388522,316,1953.0,-394.6690194580067,32000.0,90.0,98.0,-1.3,0.0,1.09,GOOD
1790978388522,317,1931.0,-379.50864673398587,32000.0,90.0,98.0,-1.3,0.0,1.09,GOOD
1790978388522,318,1922.0,-350.1497613038471,32000.0,90.0,98.0,-1.3,0.0,1.09,GOOD
1790978388522,319,1884.0,-324.46692740414676,32000.0,90.0,98.0,-1.3,0.0,1.09,GOOD
1790978388522,320,1873.0,-320.33766828361485,32000.0,90.0,98.0,-1.3,0.0,1.09,GOOD
1790978388522,321,1910.0,-338.7259284249303,32000.0,90.0,98.0,-1.3,0.0,1.09,GOOD
1790978388522,322,1932.0,-358.1802057808046,32000.0,90.0,98.0,-1.3,0.0,1.09,GOOD
1790978388522,323,1943.0,-355.64713087345984,32000.0,90.0,98.0,-1.3,0.0,1.09,GOOD
1790978388522,324,1906.0,-331.48797778754187,32000.0,90.0,98.0,-1.3,0.0,1.09,GOOD
1790978388522,325,1814.0,-310.92980896845086,32000.0,90.0,98.0,-1.3,0.0,1.09,GOOD
1790978388522,326,1873.0,-316.9187385997795,32000.0,90.0,98.0,-1.3,0.0,1.09,GOOD
1790978388522,327,1899.0,-340.47823560892283,32000.0,90.0,98.0,-1.3,0.0,1.09,GOOD
1790978388522,328,1890.0,-353.96748150727217,32000.0,90.0,98.0,-1.3,0.0,1.09,GOOD
1790978388522,329,1925.0,-345.4535655899589,32000.0,90.0,98.0,-1.3,0.0,1.09,GOOD
1790978388522,330,1956.0,-320.53972204020954,32000.0,90.0,98.0,-1.3,0.0,1.09,GOOD
1790978388522,331,1984.0,-287.6229713634249,32000.0,90.0,98.0,-1.3,0.0,1.09,GOOD
1790978388522,332,1991.0,-253.801751983452,32000.0,90.0,98.0,-1.3,0.0,1.09,GOOD
1790978388522,333,1969.0,-225.79598447501064,32000.0,90.0,98.0,-1.3,0.0,1.09,GOOD
1790978388522,334,1962.0,-209.34552369740916,32000.0,90.0,98.0,-1.3,0.0,1.09,GOOD
1790978388522,335,1955.0,-206.05166104740476,32000.0,90.0,98.0,-1.3,0.0,1.09,GOOD
1790978388522,336,1957.0,-212.19513018773557,32000.0,90.0,98.0,-1.3,0.0,1.09,GOOD
1790978388522,337,1957.0,-221.34450238562476,32000.0,90.0,98.0,-1.3,0.0,1.09,GOOD
1790978388522,338,1958.0,-227.19459080409646,32000.0,90.0,98.0,-1.3,0.0,1.09,GOOD
1790978388522,339,1945.0,-226.62453805613302,32000.0,90.0,98.0,-1.3,0.0,1.09,GOOD
1790978388522,340,1929.0,-222.40658598183646,32000.0,90.0,98.0,-1.3,0.0,1.09,GOOD
1790978388522,341,1936.0,-220.48747546766023,32000.0,90.0,98.0,-1.3,0.0,1.09,GOOD
1790978388522,342,2008.0,-220.2220616747351,32000.0,90.0,98.0,-1.3,0.0,1.09,GOOD
1790978388522,343,1994.0,-212.53659807135872,32000.0,90.0,98.0,-1.3,0.0,1.09,GOOD
1790978388522,344,1867.0,-198.86341957776028,32000.0,90.0,98.0,-1.3,0.0,1.09,GOOD
1790978388522,345,1981.0,-193.28063691694337,32000.0,90.0,98.0,-1.3,0.0,1.09,GOOD
1790978388522,346,2000.0,-194.25239226562547,32000.0,90.0,98.0,-1.3,0.0,1.09,GOOD
1790978388522,347,2012.0,-187.6188404102186,32000.0,90.0,98.0,-1.3,0.0,1.09,GOOD
1790978388522,348,2004.0,-172.01368296590942,32000.0,90.0,98.0,-1.3,0.0,1.09,GOOD
1790978388522,349,1983.0,-155.00396289131908,32000.0,90.0,98.0,-1.3,0.0,1.09,GOOD
1790978388522,350,1840.0,-147.37639613110912,32000.0,90.0,98.0,-1.3,0.0,1.09,GOOD
1790978388694,351,1944.0,-160.85446610704048,-249.0,90.9,98.0,-1.4,-0.2,1.08,GOOD
1790978388694,352,1947.0,-188.9917544832891,-247.0,90.9,98.0,-1.4,-0.2,1.08,GOOD
1790978388694,353,1980.0,-209.4212571820371,-241.0,90.9,98.0,-1.4,-0.2,1.08,GOOD
1790978388694,354,2014.0,-205.9842408414151,-242.0,90.9,98.0,-1.4,-0.2,1.08,GOOD
1790978388694,355,1980.0,-177.1785835614379,-237.0,90.9,98.0,-1.4,-0.2,1.08,GOOD
1790978388694,356,1929.0,-141.16607068423934,-234.0,90.9,98.0,-1.4,-0.2,1.08,GOOD
1790978388694,357,1947.0,-125.38925990259439,-229.0,90.9,98.0,-1.4,-0.2,1.08,GOOD
1790978388694,358,1985.0,-136.61373776350172,-226.0,90.9,98.0,-1.4,-0.2,1.08,GOOD
1790978388694,359,1984.0,-154.53932573349474,-223.0,90.9,98.0,-1.4,-0.2,1.08,GOOD
1790978388694,360,1987.0,-157.2824573866796,-219.0,90.9,98.0,-1.4,-0.2,1.08,GOOD
1790978388694,361,2220.0,-132.39669181805397,-214.0,90.9,98.0,-1.4,-0.2,1.08,GOOD
1790978388694,362,2194.0,-73.57078976763559,-211.0,90.9,98.0,-1.4,-0.2,1.08,GOOD
1790978388694,363,2232.0,4.368414722011123,-208.0,90.9,98.0,-1.4,-0.2,1.08,GOOD
1790978388694,364,2299.0,74.8356250126713,-206.0,90.9,98.0,-1.4,-0.2,1.08,GOOD
1790978388694,365,2329.0,131.56510159554205,-202.0,90.9,98.0,-1.4,-0.2,1.08,GOOD
1790978388694,366,2355.0,180.01256793579063,-201.0,90.9,98.0,-1.4,-0.2,1.08,GOOD
1790978388694,367,2361.0,216.28148932187423,-199.0,90.9,98.0,-1.4,-0.2,1.08,GOOD
1790978388694,368,2313.0,231.80656996088257,-196.0,90.9,98.0,-1.4,-0.2,1.08,GOOD
1790978388694,369,2265.0,223.86495444157072,-191.0,90.9,98.0,-1.4,-0.2,1.08,GOOD
1790978388694,370,2048.0,190.85253004841627,-191.0,90.9,98.0,-1.4,-0.2,1.08,GOOD
1790978388694,371,2072.0,126.95695660081891,-192.0,90.9,98.0,-1.4,-0.2,1.08,GOOD
1790978388694,372,2055.0,40.558867097142546,-190.0,90.9,98.0,-1.4,-0.2,1.08,GOOD
1790978388694,373,2035.0,-41.288242681512834,-188.0,90.9,98.0,-1.4,-0.2,1.08,GOOD
1790978388694,374,2068.0,-94.69322013387139,-187.0,90.9,98.0,-1.4,-0.2,1.08,GOOD
1790978388694,375,2034.0,-109.75659841162158,-185.0,90.9,98.0,-1.4,-0.2,1.08,GOOD
1790978388695,376,2091.0,-93.50190473096391,32000.0,90.9,98.0,-1.4,-0.2,1.08,GOOD
1790978388695,377,1993.0,-69.21210407144498,32000.0,90.9,98.0,-1.4,-0.2,1.08,GOOD
1790978388695,378,1891.0,-67.93576820704061,32000.0,90.9,98.0,-1.4,-0.2,1.08,GOOD
1790978388695,379,1775.0,-110.32733433985298,32000.0,90.9,98.0,-1.4,-0.2,1.08,GOOD
1790978388695,380,1801.0,-186.2921918397521,32000.0,90.9,98.0,-1.4,-0.2,1.08,GOOD
1790978388695,381,1806.0,-261.17853806520446,32000.0,90.9,98.0,-1.4,-0.2,1.08,GOOD
1790978388695,382,1828.0,-307.10447347495494,32000.0,90.9,98.0,-1.4,-0.2,1.08,GOOD
1790978388695,383,1852.0,-318.8427601740867,32000.0,90.9,98.0,-1.4,-0.2,1.08,GOOD
1790978388695,384,1860.0,-302.4907011405303,32000.0,90.9,98.0,-1.4,-0.2,1.08,GOOD
1790978388695,385,1907.0,-265.880531691432,32000.0,90.9,98.0,-1.4,-0.2,1.08,GOOD
1790978388695,386,1939.0,-219.59220320659284,32000.0,90.9,98.0,-1.4,-0.2,1.08,GOOD
1790978388695,387,1934.0,-178.04397376314574,32000.0,90.9,98.0,-1.4,-0.2,1.08,GOOD
1790978388695,388,1902.0,-154.43607218697588,32000.0,90.9,98.0,-1.4,-0.2,1.08,GOOD
1790978388695,389,1911.0,-150.00055465585956,32000.0,90.9,98.0,-1.4,-0.2,1.08,GOOD
1790978388695,390,1914.0,-152.71340148815185,32000.0,90.9,98.0,-1.4,-0.2,1.08,GOOD
1790978388695,391,1904.0,-152.95876292896537,32000.0,90.9,98.0,-1.4,-0.2,1.08,GOOD
1790978388695,392,1888.0,-154.15034158380746,32000.0,90.9,98.0,-1.4,-0.2,1.08,GOOD
1790978388695,393,1926.0,-160.24611683810954,32000.0,90.9,98.0,-1.4,-0.2,1.08,GOOD
1790978388695,394,1952.0,-161.82335627357497,32000.0,90.9,98.0,-1.4,-0.2,1.08,GOOD
1790978388695,395,1958.0,-147.15132873925742,32000.0,90.9,98.0,-1.4,-0.2,1.08,GOOD
1790978388695,396,1953.0,-120.64304768923712,32000.0,90.9,98.0,-1.4,-0.2,1.08,GOOD
1790978388695,397,1954.0,-98.44157725872218,32000.0,90.9,98.0,-1.4,-0.2,1.08,GOOD
1790978388695,398,1938.0,-90.33504592155643,32000.0,90.9,98.0,-1.4,-0.2,1.08,GOOD
1790978388695,399,1932.0,-93.47131079364706,32000.0,90.9,98.0,-1.4,-0.2,1.08,GOOD
1790978388695,400,1941.0,-99.35443313055399,32000.0,90.9,98.0,-1.4,-0.2,1.08,GOOD
1790978415571,401,1951.0,-101.89430723051805,-58.0,98.7,98.0,-1.4,-0.1,1.08,GOOD
1790978415571,402,1983.0,-99.05653126872889,-56.0,98.7,98.0,-1.4,-0.1,1.08,GOOD
1790978415571,403,1960.0,-90.71633641703147,-54.0,98.7,98.0,-1.4,-0.1,1.08,GOOD
1790978415571,404,1958.0,-79.37048212359132,-51.0,98.7,98.0,-1.4,-0.1,1.08,GOOD
1790978415571,405,1974.0,-68.85737754663346,-48.0,98.7,98.0,-1.4,-0.1,1.08,GOOD
1790978415571,406,1976.0,-60.94834831954309,-47.0,98.7,98.0,-1.4,-0.1,1.08,GOOD
1790978415571,407,1985.0,-56.17779253109277,-46.0,98.7,98.0,-1.4,-0.1,1.08,GOOD
1790978415571,408,2002.0,-52.85873027083003,-44.0,98.7,98.0,-1.4,-0.1,1.08,GOOD
1790978415571,409,2003.0,-46.18568283064894,-42.0,98.7,98.0,-1.4,-0.1,1.08,GOOD
1790978415571,410,1990.0,-34.88462266860418,-44.0,98.7,98.0,-1.4,-0.1,1.08,GOOD
1790978415571,411,1927.0,-27.433032418291177,-40.0,98.7,98.0,-1.4,-0.1,1.08,GOOD
1790978415571,412,1996.0,-32.669522608077976,-35.0,98.7,98.0,-1.4,-0.1,1.08,GOOD
1790978415571,413,1968.0,-44.93169402650028,-31.0,98.7,98.0,-1.4,-0.1,1.08,GOOD
1790978415571,414,1987.0,-51.881661526737105,-28.0,98.7,98.0,-1.4,-0.1,1.08,GOOD
1790978415571,415,2005.0,-48.49926675495978,-24.0,98.7,98.0,-1.4,-0.1,1.08,GOOD
1790978415571,416,2008.0,-36.04393317909728,-21.0,98.7,98.0,-1.4,-0.1,1.08,GOOD
1790978415571,417,1982.0,-21.1550757275303,-18.0,98.7,98.0,-1.4,-0.1,1.08,GOOD
1790978415571,418,2032.0,-11.257069063459566,-14.0,98.7,98.0,-1.4,-0.1,1.08,GOOD
1790978415571,419,1999.0,-6.2349785291548026,-11.0,98.7,98.0,-1.4,-0.1,1.08,GOOD
1790978415571,420,1972.0,-4.772957123271073,-9.0,98.7,98.0,-1.4,-0.1,1.08,GOOD
1790978415571,421,1895.0,-12.757963576529177,-7.0,98.7,98.0,-1.4,-0.1,1.08,GOOD
1790978415571,422,1862.0,-37.29536027513085,-4.0,98.7,98.0,-1.4,-0.1,1.08,GOOD
1790978415571,423,1833.0,-77.0772518334947,-4.0,98.7,98.0,-1.4,-0.1,1.08,GOOD
1790978415571,424,1809.0,-122.32641208865894,-2.0,98.7,98.0,-1.4,-0.1,1.08,GOOD
1790978415571,425,2232.0,-145.1954748061991,0.0,98.7,98.0,-1.4,-0.1,1.08,GOOD
1790978415572,426,2250.0,-99.22715017732718,32000.0,98.7,98.0,-1.4,-0.1,1.08,GOOD
1790978415572,427,2247.0,22.151191509048047,32000.0,98.7,98.0,-1.4,-0.1,1.08,GOOD
1790978415572,428,2224.0,160.05265811913665,32000.0,98.7,98.0,-1.4,-0.1,1.08,GOOD
1790978415572,429,2291.0,256.1070145771368,32000.0,98.7,98.0,-1.4,-0.1,1.08,GOOD
1790978415572,430,2274.0,296.0864279030329,32000.0,98.7,98.0,-1.4,-0.1,1.08,GOOD
1790978415572,431,2269.0,292.3221623036319,32000.0,98.7,98.0,-1.4,-0.1,1.08,GOOD
1790978415572,432,2296.0,267.20671987222715,32000.0,98.7,98.0,-1.4,-0.1,1.08,GOOD
1790978415572,433,2276.0,247.8003102471871,32000.0,98.7,98.0,-1.4,-0.1,1.08,GOOD
1790978415572,434,2280.0,247.6858560635634,32000.0,98.7,98.0,-1.4,-0.1,1.08,GOOD
1790978415572,435,2280.0,256.8672540953221,32000.0,98.7,98.0,-1.4,-0.1,1.08,GOOD
1790978415572,436,2291.0,258.77401860384623,32000.0,98.7,98.0,-1.4,-0.1,1.08,GOOD
1790978415572,437,2276.0,249.80260135584777,32000.0,98.7,98.0,-1.4,-0.1,1.08,GOOD
1790978415572,438,2242.0,238.2067586835247,32000.0,98.7,98.0,-1.4,-0.1,1.08,GOOD
1790978415572,439,2164.0,226.45113849178472,32000.0,98.7,98.0,-1.4,-0.1,1.08,GOOD
1790978415572,440,2140.0,203.58995641978456,32000.0,98.7,98.0,-1.4,-0.1,1.08,GOOD
1790978415572,441,2129.0,161.66021958860756,32000.0,98.7,98.0,-1.4,-0.1,1.08,GOOD
1790978415572,442,2115.0,110.81355459637584,32000.0,98.7,98.0,-1.4,-0.1,1.08,GOOD
1790978415572,443,2090.0,70.20537588598805,32000.0,98.7,98.0,-1.4,-0.1,1.08,GOOD
1790978415572,444,2059.0,48.592002165025555,32000.0,98.7,98.0,-1.4,-0.1,1.08,GOOD
1790978415572,445,2026.0,36.93535307964446,32000.0,98.7,98.0,-1.4,-0.1,1.08,GOOD
1790978415572,446,1996.0,19.00608162869571,32000.0,98.7,98.0,-1.4,-0.1,1.08,GOOD
1790978415572,447,1987.0,-11.085106908513126,32000.0,98.7,98.0,-1.4,-0.1,1.08,GOOD
1790978415572,448,1978.0,-43.289593178167564,32000.0,98.7,98.0,-1.4,-0.1,1.08,GOOD
1790978415572,449,1962.0,-64.65795289219753,32000.0,98.7,98.0,-1.4,-0.1,1.08,GOOD
1790978415572,450,1962.0,-73.70594821272815,32000.0,98.7,98.0,-1.4,-0.1,1.08,GOOD
1790978415572,451,1946.0,-78.57231323037405,32000.0,98.7,98.0,-1.4,-0.1,1.08,GOOD
1790978415572,452,1945.0,-85.65876964882983,32000.0,98.7,98.0,-1.4,-0.1,1.08,GOOD
1790978415572,453,1946.0,-93.23552756108998,32000.0,98.7,98.0,-1.4,-0.1,1.08,GOOD
1790978415572,454,1940.0,-96.07271146139394,32000.0,98.7,98.0,-1.4,-0.1,1.08,GOOD
1790978415572,455,1811.0,-99.25172370884044,32000.0,98.7,98.0,-1.4,-0.1,1.08,GOOD
1790978415572,456,1878.0,-116.38043833901617,32000.0,98.7,98.0,-1.4,-0.1,1.08,GOOD
1790978415572,457,1796.0,-147.78206410144207,32000.0,98.7,98.0,-1.4,-0.1,1.08,GOOD
1790978415572,458,1808.0,-181.04298576398054,32000.0,98.7,98.0,-1.4,-0.1,1.08,GOOD
1790978415572,459,1699.0,-210.45223550587923,32000.0,98.7,98.0,-1.4,-0.1,1.08,GOOD
1790978415572,460,1681.0,-240.89097149790655,32000.0,98.7,98.0,-1.4,-0.1,1.08,GOOD
1790978415572,461,1875.0,-267.9172961137688,32000.0,98.7,98.0,-1.4,-0.1,1.08,GOOD
1790978415572,462,1946.0,-264.371660741941,32000.0,98.7,98.0,-1.4,-0.1,1.08,GOOD
1790978415572,463,1944.0,-213.8851433942157,32000.0,98.7,98.0,-1.4,-0.1,1.08,GOOD
1790978415572,464,1953.0,-137.7444789896738,32000.0,98.7,98.0,-1.4,-0.1,1.08,GOOD
1790978415572,465,1952.0,-68.96987685109707,32000.0,98.7,98.0,-1.4,-0.1,1.08,GOOD
1790978415572,466,1932.0,-27.571048622166973,32000.0,98.7,98.0,-1.4,-0.1,1.08,GOOD
1790978415572,467,1936.0,-19.81843203321004,32000.0,98.7,98.0,-1.4,-0.1,1.08,GOOD
1790978415572,468,1963.0,-36.33657738360468,32000.0,98.7,98.0,-1.4,-0.1,1.08,GOOD
1790978415572,469,1969.0,-54.00313427329051,32000.0,98.7,98.0,-1.4,-0.1,1.08,GOOD
1790978415572,470,1897.0,-56.832217069145784,32000.0,98.7,98.0,-1.4,-0.1,1.08,GOOD
1790978415572,471,1947.0,-50.15529698801774,32000.0,98.7,98.0,-1.4,-0.1,1.08,GOOD
1790978415572,472,1948.0,-45.2986586004181,32000.0,98.7,98.0,-1.4,-0.1,1.08,GOOD
1790978415572,473,1961.0,-44.96851024398387,32000.0,98.7,98.0,-1.4,-0.1,1.08,GOOD
1790978415572,474,1961.0,-45.08900532041041,32000.0,98.7,98.0,-1.4,-0.1,1.08,GOOD
1790978415572,475,1972.0,-38.96418421778496,32000.0,98.7,98.0,-1.4,-0.1,1.08,GOOD
1790978415856,476,1984.0,-24.069820916260998,32000.0,100.4,98.0,-1.5,-0.1,1.08,GOOD
1790978415856,477,1968.0,-7.675010968841139,32000.0,100.4,98.0,-1.5,-0.1,1.08,GOOD
1790978415856,478,1995.0,0.08436692871206386,32000.0,100.4,98.0,-1.5,-0.1,1.08,GOOD
1790978415856,479,2008.0,0.28099269927442383,32000.0,100.4,98.0,-1.5,-0.1,1.08,GOOD
1790978415856,480,2002.0,3.7547871969570363,32000.0,100.4,98.0,-1.5,-0.1,1.08,GOOD
1790978415856,481,1985.0,14.185267844886539,32000.0,100.4,98.0,-1.5,-0.1,1.08,GOOD
1790978415856,482,1986.0,23.046585023489378,32000.0,100.4,98.0,-1.5,-0.1,1.08,GOOD
1790978415856,483,1992.0,22.1856352529202,32000.0,100.4,98.0,-1.5,-0.1,1.08,GOOD
1790978415856,484,1917.0,11.073642032547177,32000.0,100.4,98.0,-1.5,-0.1,1.08,GOOD
1790978415856,485,1837.0,-10.833773767635027,32000.0,100.4,98.0,-1.5,-0.1,1.08,GOOD
1790978415856,486,1868.0,-43.903427628673505,32000.0,100.4,98.0,-1.5,-0.1,1.08,GOOD
1790978415856,487,1894.0,-78.00313006013525,32000.0,100.4,98.0,-1.5,-0.1,1.08,GOOD
1790978415856,488,1855.0,-100.82888234492778,32000.0,100.4,98.0,-1.5,-0.1,1.08,GOOD
1790978415856,489,1937.0,-108.63160529808343,32000.0,100.4,98.0,-1.5,-0.1,1.08,GOOD
1790978415856,490,1946.0,-97.20357465057975,32000.0,100.4,98.0,-1.5,-0.1,1.08,GOOD
1790978415856,491,1936.0,-66.15908441816998,32000.0,100.4,98.0,-1.5,-0.1,1.08,GOOD
1790978415856,492,1934.0,-31.60503425801907,32000.0,100.4,98.0,-1.5,-0.1,1.08,GOOD
1790978415856,493,1879.0,-14.931191730887647,32000.0,100.4,98.0,-1.5,-0.1,1.08,GOOD
1790978415856,494,1875.0,-24.66116068027728,32000.0,100.4,98.0,-1.5,-0.1,1.08,GOOD
1790978415856,495,1853.0,-51.1444352471068,32000.0,100.4,98.0,-1.5,-0.1,1.08,GOOD
1790978415856,496,1785.0,-79.8628968533636,32000.0,100.4,98.0,-1.5,-0.1,1.08,GOOD
1790978415856,497,1824.0,-105.90175532151687,32000.0,100.4,98.0,-1.5,-0.1,1.08,GOOD
1790978415856,498,1920.0,-123.10253662659588,32000.0,100.4,98.0,-1.5,-0.1,1.08,GOOD
1790978415856,499,2122.0,-109.85263479611586,32000.0,100.4,98.0,-1.5,-0.1,1.08,GOOD
1790978415856,500,2096.0,-47.49031820538235,32000.0,100.4,98.0,-1.5,-0.1,1.08,GOOD
1790978415857,501,2135.0,48.840073293275886,32000.0,100.4,98.0,-1.5,-0.1,1.08,GOOD
1790978415857,502,2080.0,137.97854635309744,32000.0,100.4,98.0,-1.5,-0.1,1.08,GOOD
1790978415857,503,2028.0,184.31596050420433,32000.0,100.4,98.0,-1.5,-0.1,1.08,GOOD
1790978415857,504,2004.0,174.83886995871205,32000.0,100.4,98.0,-1.5,-0.1,1.08,GOOD
1790978415857,505,1992.0,124.93206081563191,32000.0,100.4,98.0,-1.5,-0.1,1.08,GOOD
1790978415857,506,2009.0,68.89815661693994,32000.0,100.4,98.0,-1.5,-0.1,1.08,GOOD
1790978415857,507,2011.0,36.22862744041165,32000.0,100.4,98.0,-1.5,-0.1,1.08,GOOD
1790978415857,508,1989.0,32.61646104071217,32000.0,100.4,98.0,-1.5,-0.1,1.08,GOOD
1790978415857,509,2004.0,42.21868839104755,32000.0,100.4,98.0,-1.5,-0.1,1.08,GOOD
1790978415857,510,1987.0,48.350137792471614,32000.0,100.4,98.0,-1.5,-0.1,1.08,GOOD
1790978415857,511,1989.0,46.586139136529525,32000.0,100.4,98.0,-1.5,-0.1,1.08,GOOD
1790978415857,512,2007.0,42.382819670767475,32000.0,100.4,98.0,-1.5,-0.1,1.08,GOOD
1790978415857,513,2018.0,43.04287979479638,32000.0,100.4,98.0,-1.5,-0.1,1.08,GOOD
1790978415857,514,1956.0,47.10939943515548,32000.0,100.4,98.0,-1.5,-0.1,1.08,GOOD
1790978415857,515,2010.0,46.11551601432231,32000.0,100.4,98.0,-1.5,-0.1,1.08,GOOD
1790978415857,516,2020.0,41.53860338888447,32000.0,100.4,98.0,-1.5,-0.1,1.08,GOOD
1790978415857,517,1905.0,38.965313437485364,32000.0,100.4,98.0,-1.5,-0.1,1.08,GOOD
1790978415857,518,2028.0,34.55465166181556,32000.0,100.4,98.0,-1.5,-0.1,1.08,GOOD
1790978415857,519,2051.0,32.1474094257525,32000.0,100.4,98.0,-1.5,-0.1,1.08,GOOD
1790978415857,520,2095.0,44.79569706218689,32000.0,100.4,98.0,-1.5,-0.1,1.08,GOOD
1790978415857,521,2194.0,77.59362584055852,32000.0,100.4,98.0,-1.5,-0.1,1.08,GOOD
1790978415857,522,2297.0,132.80869553166116,32000.0,100.4,98.0,-1.5,-0.1,1.08,GOOD
1790978415857,523,2439.0,213.6558500782173,32000.0,100.4,98.0,-1.5,-0.1,1.08,GOOD
1790978415857,524,2610.0,319.04047833164196,32000.0,100.4,98.0,-1.5,-0.1,1.08,GOOD
1790978415857,525,2666.0,440.8602162122453,32000.0,100.4,98.0,-1.5,-0.1,1.08,GOOD
1790978416161,526,2669.0,558.9060691530988,10.0,100.4,98.0,-1.4,-0.1,1.08,GOOD
1790978416161,527,2533.0,641.8109512128458,9.0,100.4,98.0,-1.4,-0.1,1.08,GOOD
1790978416161,528,2261.0,652.7083879256459,7.0,100.4,98.0,-1.4,-0.1,1.08,GOOD
1790978416161,529,2063.0,562.3342935844364,9.0,100.4,98.0,-1.4,-0.1,1.08,GOOD
1790978416161,530,1864.0,375.38950251847194,7.0,100.4,98.0,-1.4,-0.1,1.08,GOOD
1790978416161,531,1809.0,140.09724714973058,10.0,100.4,98.0,-1.4,-0.1,1.08,GOOD
1790978416161,532,1828.0,-72.35810721847366,9.0,100.4,98.0,-1.4,-0.1,1.08,GOOD
1790978416161,533,1848.0,-203.66051682501418,7.0,100.4,98.0,-1.4,-0.1,1.08,GOOD
1790978416161,534,1838.0,-241.33341736102813,8.0,100.4,98.0,-1.4,-0.1,1.08,GOOD
1790978416161,535,1843.0,-218.30414596497369,7.0,100.4,98.0,-1.4,-0.1,1.08,GOOD
1790978416161,536,2034.0,-171.71790971779473,10.0,100.4,98.0,-1.4,-0.1,1.08,GOOD
1790978416161,537,2051.0,-111.80672259262887,10.0,100.4,98.0,-1.4,-0.1,1.08,GOOD
1790978416161,538,2054.0,-42.35940774869479,8.0,100.4,98.0,-1.4,-0.1,1.08,GOOD
1790978416161,539,1963.0,15.647987619664153,10.0,100.4,98.0,-1.4,-0.1,1.08,GOOD
1790978416161,540,2079.0,44.07776370185157,13.0,100.4,98.0,-1.4,-0.1,1.08,GOOD
1790978416161,541,2071.0,50.672176261019246,14.0,100.4,98.0,-1.4,-0.1,1.08,GOOD
1790978416161,542,2052.0,51.3098666344435,15.0,100.4,98.0,-1.4,-0.1,1.08,GOOD
1790978416161,543,2055.0,49.51973704208581,17.0,100.4,98.0,-1.4,-0.1,1.08,GOOD
1790978416161,544,2084.0,48.50955909400925,17.0,100.4,98.0,-1.4,-0.1,1.08,GOOD
1790978416161,545,2068.0,55.37659442176633,20.0,100.4,98.0,-1.4,-0.1,1.08,GOOD
1790978416161,546,2076.0,66.90359397949895,20.0,100.4,98.0,-1.4,-0.1,1.08,GOOD
1790978416161,547,2082.0,72.53844037790466,22.0,100.4,98.0,-1.4,-0.1,1.08,GOOD
1790978416161,548,2095.0,70.52479429395625,22.0,100.4,98.0,-1.4,-0.1,1.08,GOOD
1790978416161,549,2117.0,70.43340913614512,23.0,100.4,98.0,-1.4,-0.1,1.08,GOOD
1790978416161,550,2129.0,80.83249329175553,24.0,100.4,98.0,-1.4,-0.1,1.08,GOOD
1790978416162,551,2122.0,98.18085370768009,32000.0,100.4,98.0,-1.4,-0.1,1.08,GOOD
1790978416162,552,2129.0,110.75709349323023,32000.0,100.4,98.0,-1.4,-0.1,1.08,GOOD
1790978416162,553,2125.0,113.03894313848099,32000.0,100.4,98.0,-1.4,-0.1,1.08,GOOD
1790978416162,554,2133.0,110.41180830280632,32000.0,100.4,98.0,-1.4,-0.1,1.08,GOOD
1790978416162,555,2166.0,111.31849058191727,32000.0,100.4,98.0,-1.4,-0.1,1.08,GOOD
1790978416162,556,2168.0,118.96772913059661,32000.0,100.4,98.0,-1.4,-0.1,1.08,GOOD
1790978416162,557,2191.0,129.88804933576648,32000.0,100.4,98.0,-1.4,-0.1,1.08,GOOD
1790978416162,558,2182.0,140.10306318159667,32000.0,100.4,98.0,-1.4,-0.1,1.08,GOOD
1790978416162,559,2061.0,144.02360743089974,32000.0,100.4,98.0,-1.4,-0.1,1.08,GOOD
1790978416162,560,2070.0,130.610120826706,32000.0,100.4,98.0,-1.4,-0.1,1.08,GOOD
1790978416162,561,2065.0,97.52379454078421,32000.0,100.4,98.0,-1.4,-0.1,1.08,GOOD
1790978416162,562,2097.0,59.21764305826807,32000.0,100.4,98.0,-1.4,-0.1,1.08,GOOD
1790978416162,563,2148.0,35.59303235616107,32000.0,100.4,98.0,-1.4,-0.1,1.08,GOOD
1790978416162,564,2156.0,40.1713795653678,32000.0,100.4,98.0,-1.4,-0.1,1.08,GOOD
1790978416162,565,2140.0,69.22829420680326,32000.0,100.4,98.0,-1.4,-0.1,1.08,GOOD
1790978416162,566,2005.0,96.59617266141325,32000.0,100.4,98.0,-1.4,-0.1,1.08,GOOD
1790978416162,567,2073.0,93.18065383655464,32000.0,100.4,98.0,-1.4,-0.1,1.08,GOOD
1790978416162,568,2348.0,71.25258929345311,32000.0,100.4,98.0,-1.4,-0.1,1.08,GOOD
1790978416162,569,2344.0,82.56023522311179,32000.0,100.4,98.0,-1.4,-0.1,1.08,GOOD
1790978416162,570,2383.0,149.1699674163991,32000.0,100.4,98.0,-1.4,-0.1,1.08,GOOD
1790978416162,571,2366.0,239.90191395948483,32000.0,100.4,98.0,-1.4,-0.1,1.08,GOOD
1790978416162,572,2313.0,310.81804126624127,32000.0,100.4,98.0,-1.4,-0.1,1.08,GOOD
1790978416162,573,2254.0,331.42370092728436,32000.0,100.4,98.0,-1.4,-0.1,1.08,GOOD
1790978416162,574,2235.0,295.75400368951694,32000.0,100.4,98.0,-1.4,-0.1,1.08,GOOD
1790978416162,575,2226.0,228.23916390707436,32000.0,100.4,98.0,-1.4,-0.1,1.08,GOOD
1790978416466,576,2157.0,164.4393004771307,26.0,102.2,98.0,-1.4,-0.1,1.07,GOOD
1790978416466,577,2158.0,122.15450466599853,23.0,102.2,98.0,-1.4,-0.1,1.07,GOOD
1790978416466,578,2024.0,92.73626293210354,26.0,102.2,98.0,-1.4,-0.1,1.07,GOOD
1790978416466,579,2075.0,56.878598613905154,25.0,102.2,98.0,-1.4,-0.1,1.07,GOOD
1790978416466,580,2080.0,13.427321542913543,25.0,102.2,98.0,-1.4,-0.1,1.07,GOOD
1790978416466,581,2057.0,-18.91315375170078,27.0,102.2,98.0,-1.4,-0.1,1.07,GOOD
1790978416466,582,1953.0,-34.208724066336615,30.0,102.2,98.0,-1.4,-0.1,1.07,GOOD
1790978416466,583,1933.0,-49.3805510514547,32.0,102.2,98.0,-1.4,-0.1,1.07,GOOD
1790978416466,584,1969.0,-77.05693517539252,36.0,102.2,98.0,-1.4,-0.1,1.07,GOOD
1790978416466,585,1987.0,-107.77759431654914,43.0,102.2,98.0,-1.4,-0.1,1.07,GOOD
1790978416466,586,1989.0,-124.48559673430198,46.0,102.2,98.0,-1.4,-0.1,1.07,GOOD
1790978416466,587,2000.0,-120.2702127566603,49.0,102.2,98.0,-1.4,-0.1,1.07,GOOD
1790978416466,588,1981.0,-100.99547859641777,53.0,102.2,98.0,-1.4,-0.1,1.07,GOOD
1790978416466,589,1954.0,-82.4478361633256,56.0,102.2,98.0,-1.4,-0.1,1.07,GOOD
1790978416466,590,1980.0,-79.2186996226801,57.0,102.2,98.0,-1.4,-0.1,1.07,GOOD
1790978416466,591,1978.0,-89.85761661971173,61.0,102.2,98.0,-1.4,-0.1,1.07,GOOD
1790978416466,592,1980.0,-100.37086487655225,61.0,102.2,98.0,-1.4,-0.1,1.07,GOOD
1790978416466,593,1956.0,-101.66387183094612,63.0,102.2,98.0,-1.4,-0.1,1.07,GOOD
1790978416466,594,1967.0,-97.00486464552633,60.0,102.2,98.0,-1.4,-0.1,1.07,GOOD
1790978416466,595,1912.0,-96.46995401220772,61.0,102.2,98.0,-1.4,-0.1,1.07,GOOD
1790978416466,596,1967.0,-105.70373882404095,61.0,102.2,98.0,-1.4,-0.1,1.07,GOOD
1790978416466,597,1946.0,-117.33582271970617,53.0,102.2,98.0,-1.4,-0.1,1.07,GOOD
1790978416466,598,1872.0,-123.54120761232336,53.0,102.2,98.0,-1.4,-0.1,1.07,GOOD
1790978416466,599,1831.0,-132.48011460427722,55.0,102.2,98.0,-1.4,-0.1,1.07,GOOD
1790978416466,600,1995.0,-148.71619207799534,52.0,102.2,98.0,-1.4,-0.1,1.07,GOOD
1790978416467,601,2012.0,-152.9860109644483,32000.0,102.2,98.0,-1.4,-0.1,1.07,GOOD
1790978416467,602,2040.0,-127.98855719815778,32000.0,102.2,98.0,-1.4,-0.1,1.07,GOOD
1790978416467,603,2046.0,-81.14352271608655,32000.0,102.2,98.0,-1.4,-0.1,1.07,GOOD
1790978416467,604,1953.0,-34.989897041723275,32000.0,102.2,98.0,-1.4,-0.1,1.07,GOOD
1790978416467,605,2052.0,-10.723931307702156,32000.0,102.2,98.0,-1.4,-0.1,1.07,GOOD
1790978416467,606,2036.0,-10.351919290245375,32000.0,102.2,98.0,-1.4,-0.1,1.07,GOOD
1790978416467,607,2041.0,-19.65461479172172,32000.0,102.2,98.0,-1.4,-0.1,1.07,GOOD
1790978416467,608,2058.0,-25.020816840273913,32000.0,102.2,98.0,-1.4,-0.1,1.07,GOOD
1790978416467,609,2090.0,-16.463129753709758,32000.0,102.2,98.0,-1.4,-0.1,1.07,GOOD
1790978416467,610,2073.0,6.007999043763861,32000.0,102.2,98.0,-1.4,-0.1,1.07,GOOD
1790978416467,611,2061.0,26.81764556250932,32000.0,102.2,98.0,-1.4,-0.1,1.07,GOOD
1790978416467,612,2065.0,30.973377929556037,32000.0,102.2,98.0,-1.4,-0.1,1.07,GOOD
1790978416467,613,2066.0,21.87379895730436,32000.0,102.2,98.0,-1.4,-0.1,1.07,GOOD
1790978416467,614,2072.0,14.260023163936452,32000.0,102.2,98.0,-1.4,-0.1,1.07,GOOD
1790978416467,615,2054.0,14.575702213466501,32000.0,102.2,98.0,-1.4,-0.1,1.07,GOOD
1790978416467,616,2066.0,16.305945205799794,32000.0,102.2,98.0,-1.4,-0.1,1.07,GOOD
1790978416467,617,2075.0,13.592903027292476,32000.0,102.2,98.0,-1.4,-0.1,1.07,GOOD
1790978416467,618,2087.0,10.855363471719983,32000.0,102.2,98.0,-1.4,-0.1,1.07,GOOD
1790978416467,619,2096.0,15.731915130226577,32000.0,102.2,98.0,-1.4,-0.1,1.07,GOOD
1790978416467,620,2060.0,26.819914826089747,32000.0,102.2,98.0,-1.4,-0.1,1.07,GOOD
1790978416467,621,2063.0,32.83019628608268,32000.0,102.2,98.0,-1.4,-0.1,1.07,GOOD
1790978416467,622,1955.0,22.492955125216042,32000.0,102.2,98.0,-1.4,-0.1,1.07,GOOD
1790978416467,623,1958.0,-7.701240951981832,32000.0,102.2,98.0,-1.4,-0.1,1.07,GOOD
1790978416467,624,1913.0,-49.77276682178954,32000.0,102.2,98.0,-1.4,-0.1,1.07,GOOD
1790978416467,625,1852.0,-92.84860329757363,32000.0,102.2,98.0,-1.4,-0.1,1.07,GOOD
1790978416467,626,1881.0,-133.10005216962563,32000.0,102.2,98.0,-1.4,-0.1,1.07,GOOD
1790978416467,627,1905.0,-164.0571767687433,32000.0,102.2,98.0,-1.4,-0.1,1.07,GOOD
1790978416467,628,1864.0,-176.48568656672884,32000.0,102.2,98.0,-1.4,-0.1,1.07,GOOD
1790978416467,629,1805.0,-175.67764848079594,32000.0,102.2,98.0,-1.4,-0.1,1.07,GOOD
1790978416467,630,1776.0,-179.47145803991089,32000.0,102.2,98.0,-1.4,-0.1,1.07,GOOD
1790978416467,631,2047.0,-187.39399241249686,32000.0,102.2,98.0,-1.4,-0.1,1.07,GOOD
1790978416467,632,2045.0,-169.88690557938602,32000.0,102.2,98.0,-1.4,-0.1,1.07,GOOD
1790978416467,633,2069.0,-112.07008868523161,32000.0,102.2,98.0,-1.4,-0.1,1.07,GOOD
1790978416467,634,2074.0,-36.38160946907118,32000.0,102.2,98.0,-1.4,-0.1,1.07,GOOD
1790978416467,635,2038.0,27.275921273191994,32000.0,102.2,98.0,-1.4,-0.1,1.07,GOOD
1790978416467,636,2025.0,58.83284412271081,32000.0,102.2,98.0,-1.4,-0.1,1.07,GOOD
1790978416467,637,2027.0,51.88285334204521,32000.0,102.2,98.0,-1.4,-0.1,1.07,GOOD
1790978416467,638,2038.0,20.790574143679127,32000.0,102.2,98.0,-1.4,-0.1,1.07,GOOD
1790978416467,639,2049.0,-6.846952580170781,32000.0,102.2,98.0,-1.4,-0.1,1.07,GOOD
1790978416467,640,2054.0,-11.24674860852128,32000.0,102.2,98.0,-1.4,-0.1,1.07,GOOD
1790978416467,641,2058.0,4.967383388402551,32000.0,102.2,98.0,-1.4,-0.1,1.07,GOOD
1790978416467,642,2103.0,25.161398207496532,32000.0,102.2,98.0,-1.4,-0.1,1.07,GOOD
1790978416467,643,2191.0,42.76323237505685,32000.0,102.2,98.0,-1.4,-0.1,1.07,GOOD
1790978416467,644,2319.0,72.77266504502438,32000.0,102.2,98.0,-1.4,-0.1,1.07,GOOD
1790978416467,645,2472.0,137.64211442153206,32000.0,102.2,98.0,-1.4,-0.1,1.07,GOOD
1790978416467,646,2684.0,247.72238964142187,32000.0,102.2,98.0,-1.4,-0.1,1.07,GOOD
1790978416467,647,2661.0,388.72087871351255,32000.0,102.2,98.0,-1.4,-0.1,1.07,GOOD
1790978416467,648,2679.0,520.3191530521024,32000.0,102.2,98.0,-1.4,-0.1,1.07,GOOD
1790978416467,649,2479.0,597.0471249699128,32000.0,102.2,98.0,-1.4,-0.1,1.07,GOOD
1790978416467,650,2382.0,591.2650265982379,32000.0,102.2,98.0,-1.4,-0.1,1.07,GOOD
1790978416774,651,2130.0,498.7075025857499,-10.0,102.2,98.0,-1.3,-0.2,1.08,GOOD
1790978416774,652,1930.0,332.00680511954346,-12.0,102.2,98.0,-1.3,-0.2,1.08,GOOD
1790978416774,653,1818.0,119.80581709411807,-13.0,102.2,98.0,-1.3,-0.2,1.08,GOOD
1790978416774,654,1860.0,-85.32723744876041,-14.0,102.2,98.0,-1.3,-0.2,1.08,GOOD
1790978416774,655,2027.0,-219.16407476214926,-15.0,102.2,98.0,-1.3,-0.2,1.08,GOOD
1790978416774,656,2020.0,-246.34677499219396,-14.0,102.2,98.0,-1.3,-0.2,1.08,GOOD
1790978416774,657,2048.0,-190.14866987853856,-16.0,102.2,98.0,-1.3,-0.2,1.08,GOOD
1790978416774,658,2077.0,-105.95189315667018,-16.0,102.2,98.0,-1.3,-0.2,1.08,GOOD
1790978416774,659,2066.0,-34.52916724576808,-13.0,102.2,98.0,-1.3,-0.2,1.08,GOOD
1790978416774,660,1930.0,0.6522299155569047,-12.0,102.2,98.0,-1.3,-0.2,1.08,GOOD
1790978416774,661,1961.0,-14.176188130463794,-13.0,102.2,98.0,-1.3,-0.2,1.08,GOOD
1790978416774,662,1898.0,-67.42976386305403,-16.0,102.2,98.0,-1.3,-0.2,1.08,GOOD
1790978416774,663,1869.0,-128.42250444929402,-16.0,102.2,98.0,-1.3,-0.2,1.08,GOOD
1790978416774,664,2046.0,-167.78216372083347,-15.0,102.2,98.0,-1.3,-0.2,1.08,GOOD
1790978416774,665,2004.0,-165.01882701840339,-14.0,102.2,98.0,-1.3,-0.2,1.08,GOOD
1790978416774,666,1979.0,-128.42524707121208,-14.0,102.2,98.0,-1.3,-0.2,1.08,GOOD
1790978416774,667,1903.0,-93.92889404767563,-14.0,102.2,98.0,-1.3,-0.2,1.08,GOOD
1790978416774,668,1895.0,-87.71280131044057,-15.0,102.2,98.0,-1.3,-0.2,1.08,GOOD
1790978416774,669,1916.0,-107.73172923560165,-14.0,102.2,98.0,-1.3,-0.2,1.08,GOOD
1790978416774,670,1911.0,-136.5667325327958,-14.0,102.2,98.0,-1.3,-0.2,1.08,GOOD
1790978416774,671,1941.0,-158.35373640440224,-15.0,102.2,98.0,-1.3,-0.2,1.08,GOOD
1790978416774,672,1955.0,-162.18625946813,-16.0,102.2,98.0,-1.3,-0.2,1.08,GOOD
1790978416774,673,1965.0,-143.93424588484257,-18.0,102.2,98.0,-1.3,-0.2,1.08,GOOD
1790978416774,674,1945.0,-113.93522737596854,-21.0,102.2,98.0,-1.3,-0.2,1.08,GOOD
1790978416774,675,1796.0,-98.29165482613693,-20.0,102.2,98.0,-1.3,-0.2,1.08,GOOD
1790978416774,676,1901.0,-117.0613372135178,32000.0,102.2,98.0,-1.3,-0.2,1.08,GOOD
1790978416774,677,1901.0,-153.83645150326254,32000.0,102.2,98.0,-1.3,-0.2,1.08,GOOD
1790978416774,678,1917.0,-173.86460015809965,32000.0,102.2,98.0,-1.3,-0.2,1.08,GOOD
1790978416774,679,1949.0,-165.3206203069385,32000.0,102.2,98.0,-1.3,-0.2,1.08,GOOD
1790978416774,680,1940.0,-139.51256589257866,32000.0,102.2,98.0,-1.3,-0.2,1.08,GOOD
1790978416774,681,1891.0,-114.4766247948884,32000.0,102.2,98.0,-1.3,-0.2,1.08,GOOD
1790978416774,682,1981.0,-101.21446477669689,32000.0,102.2,98.0,-1.3,-0.2,1.08,GOOD
1790978416774,683,1990.0,-92.81294158411062,32000.0,102.2,98.0,-1.3,-0.2,1.08,GOOD
1790978416774,684,2002.0,-78.45351802814994,32000.0,102.2,98.0,-1.3,-0.2,1.08,GOOD
1790978416774,685,1990.0,-60.028458720105526,32000.0,102.2,98.0,-1.3,-0.2,1.08,GOOD
1790978416774,686,1990.0,-44.62549790214134,32000.0,102.2,98.0,-1.3,-0.2,1.08,GOOD
1790978416774,687,1986.0,-35.09740327278094,32000.0,102.2,98.0,-1.3,-0.2,1.08,GOOD
1790978416774,688,2010.0,-30.916302355990087,32000.0,102.2,98.0,-1.3,-0.2,1.08,GOOD
1790978416774,689,2003.0,-30.376944681311233,32000.0,102.2,98.0,-1.3,-0.2,1.08,GOOD
1790978416774,690,1972.0,-32.617432581961964,32000.0,102.2,98.0,-1.3,-0.2,1.08,GOOD
1790978416774,691,1968.0,-37.57178468647907,32000.0,102.2,98.0,-1.3,-0.2,1.08,GOOD
1790978416774,692,1964.0,-43.50235681328046,32000.0,102.2,98.0,-1.3,-0.2,1.08,GOOD
1790978416774,693,1966.0,-48.96872717803616,32000.0,102.2,98.0,-1.3,-0.2,1.08,GOOD
1790978416774,694,1962.0,-55.26416712597463,32000.0,102.2,98.0,-1.3,-0.2,1.08,GOOD
1790978416774,695,2011.0,-60.4020173969524,32000.0,102.2,98.0,-1.3,-0.2,1.08,GOOD
1790978416774,696,2046.0,-54.49159742432752,32000.0,102.2,98.0,-1.3,-0.2,1.08,GOOD
1790978416774,697,2043.0,-31.109550689593927,32000.0,102.2,98.0,-1.3,-0.2,1.08,GOOD
1790978416774,698,1974.0,-2.6141962617535954,32000.0,102.2,98.0,-1.3,-0.2,1.08,GOOD
1790978416774,699,1935.0,6.721623698065969,32000.0,102.2,98.0,-1.3,-0.2,1.08,GOOD
1790978416774,700,1957.0,-12.542416610261848,32000.0,102.2,98.0,-1.3,-0.2,1.08,GOOD
1790978416775,701,2018.0,-41.71866615199626,32000.0,102.2,98.0,-1.3,-0.2,1.08,GOOD
1790978416775,702,2022.0,-53.98131005996626,32000.0,102.2,98.0,-1.3,-0.2,1.08,GOOD
1790978416775,703,2036.0,-41.531491534667666,32000.0,102.2,98.0,-1.3,-0.2,1.08,GOOD
1790978416775,704,2033.0,-15.911062013826053,32000.0,102.2,98.0,-1.3,-0.2,1.08,GOOD
1790978416775,705,2045.0,8.982545995704577,32000.0,102.2,98.0,-1.3,-0.2,1.08,GOOD
1790978416775,706,2041.0,25.58772923019739,32000.0,102.2,98.0,-1.3,-0.2,1.08,GOOD
1790978416775,707,2041.0,31.61855752593229,32000.0,102.2,98.0,-1.3,-0.2,1.08,GOOD
1790978416775,708,2044.0,29.02240386783167,32000.0,102.2,98.0,-1.3,-0.2,1.08,GOOD
1790978416775,709,2056.0,24.223497929197624,32000.0,102.2,98.0,-1.3,-0.2,1.08,GOOD
1790978416775,710,1962.0,20.40296809369175,32000.0,102.2,98.0,-1.3,-0.2,1.08,GOOD
1790978416775,711,2059.0,14.035617090064518,32000.0,102.2,98.0,-1.3,-0.2,1.08,GOOD
1790978416775,712,2044.0,7.679929939478784,32000.0,102.2,98.0,-1.3,-0.2,1.08,GOOD
1790978416775,713,2065.0,8.72649900129835,32000.0,102.2,98.0,-1.3,-0.2,1.08,GOOD
1790978416775,714,2061.0,17.52040179696267,32000.0,102.2,98.0,-1.3,-0.2,1.08,GOOD
1790978416775,715,2056.0,30.049128891275,32000.0,102.2,98.0,-1.3,-0.2,1.08,GOOD
1790978416775,716,2020.0,39.97675416939719,32000.0,102.2,98.0,-1.3,-0.2,1.08,GOOD
1790978416775,717,2069.0,40.86401501854343,32000.0,102.2,98.0,-1.3,-0.2,1.08,GOOD
1790978416775,718,2079.0,35.46076194901943,32000.0,102.2,98.0,-1.3,-0.2,1.08,GOOD
1790978416775,719,2073.0,33.0303026514046,32000.0,102.2,98.0,-1.3,-0.2,1.08,GOOD
1790978416775,720,2095.0,38.68498968747947,32000.0,102.2,98.0,-1.3,-0.2,1.08,GOOD
1790978416775,721,2101.0,51.99753587085125,32000.0,102.2,98.0,-1.3,-0.2,1.08,GOOD
1790978416775,722,2118.0,68.35032503252513,32000.0,102.2,98.0,-1.3,-0.2,1.08,GOOD
1790978416775,723,2105.0,80.46555995380331,32000.0,102.2,98.0,-1.3,-0.2,1.08,GOOD
1790978416775,724,2073.0,82.8535229245019,32000.0,102.2,98.0,-1.3,-0.2,1.08,GOOD
1790978416775,725,2028.0,73.62938328501014,32000.0,102.2,98.0,-1.3,-0.2,1.08,GOOD
1790978416940,726,1982.0,52.610307953766245,32000.0,103.8,98.0,-1.4,-0.0,1.08,GOOD
1790978416940,727,1946.0,19.60179900891675,32000.0,103.8,98.0,-1.4,-0.0,1.08,GOOD
1790978416940,728,1915.0,-23.479282274820925,32000.0,103.8,98.0,-1.4,-0.0,1.08,GOOD
1790978416940,729,1838.0,-71.56390485684308,32000.0,103.8,98.0,-1.4,-0.0,1.08,GOOD
1790978416940,730,1813.0,-119.24528167998173,32000.0,103.8,98.0,-1.4,-0.0,1.08,GOOD
1790978416940,731,1874.0,-157.95663499470828,32000.0,103.8,98.0,-1.4,-0.0,1.08,GOOD
1790978416940,732,1854.0,-177.09407165000297,32000.0,103.8,98.0,-1.4,-0.0,1.08,GOOD
1790978416940,733,1921.0,-174.79203478600635,32000.0,103.8,98.0,-1.4,-0.0,1.08,GOOD
1790978416940,734,1938.0,-155.30597465647256,32000.0,103.8,98.0,-1.4,-0.0,1.08,GOOD
1790978416940,735,1938.0,-122.9274075493955,32000.0,103.8,98.0,-1.4,-0.0,1.08,GOOD
1790978416940,736,1927.0,-87.79042188196186,32000.0,103.8,98.0,-1.4,-0.0,1.08,GOOD
1790978416940,737,1958.0,-62.87237825653185,32000.0,103.8,98.0,-1.4,-0.0,1.08,GOOD
1790978416940,738,2031.0,-49.72104550300671,32000.0,103.8,98.0,-1.4,-0.0,1.08,GOOD
1790978416940,739,2072.0,-35.03188626476641,32000.0,103.8,98.0,-1.4,-0.0,1.08,GOOD
1790978416940,740,2031.0,-8.242706136577034,32000.0,103.8,98.0,-1.4,-0.0,1.08,GOOD
1790978416940,741,2054.0,24.19541042620018,32000.0,103.8,98.0,-1.4,-0.0,1.08,GOOD
1790978416940,742,2152.0,53.10595963847222,32000.0,103.8,98.0,-1.4,-0.0,1.08,GOOD
1790978416940,743,2183.0,81.31725071629988,32000.0,103.8,98.0,-1.4,-0.0,1.08,GOOD
1790978416940,744,2362.0,119.39390791128696,32000.0,103.8,98.0,-1.4,-0.0,1.08,GOOD
1790978416940,745,2511.0,184.58205566131704,32000.0,103.8,98.0,-1.4,-0.0,1.08,GOOD
1790978416940,746,2692.0,293.2245939019957,32000.0,103.8,98.0,-1.4,-0.0,1.08,GOOD
1790978416940,747,2709.0,437.05325074724874,32000.0,103.8,98.0,-1.4,-0.0,1.08,GOOD
1790978416940,748,2704.0,575.343489081876,32000.0,103.8,98.0,-1.4,-0.0,1.08,GOOD
1790978416940,749,2594.0,659.4593275310523,32000.0,103.8,98.0,-1.4,-0.0,1.08,GOOD
1790978416940,750,2385.0,659.3022684821401,32000.0,103.8,98.0,-1.4,-0.0,1.08,GOOD
1790978417466,751,2024.0,561.6339452892219,32000.0,103.8,98.0,-1.4,-0.2,1.08,GOOD
1790978417466,752,1929.0,371.17400938941955,32000.0,103.8,98.0,-1.4,-0.2,1.08,GOOD
1790978417466,753,1821.0,130.82383251680025,32000.0,103.8,98.0,-1.4,-0.2,1.08,GOOD
1790978417466,754,1823.0,-90.43687758922606,32000.0,103.8,98.0,-1.4,-0.2,1.08,GOOD
1790978417466,755,1918.0,-235.36736386677848,32000.0,103.8,98.0,-1.4,-0.2,1.08,GOOD
1790978417466,756,2007.0,-275.96413174658227,32000.0,103.8,98.0,-1.4,-0.2,1.08,GOOD
1790978417466,757,1999.0,-224.5315214827637,32000.0,103.8,98.0,-1.4,-0.2,1.08,GOOD
1790978417466,758,1984.0,-134.10009359878597,32000.0,103.8,98.0,-1.4,-0.2,1.08,GOOD
1790978417466,759,1996.0,-63.02320745057185,32000.0,103.8,98.0,-1.4,-0.2,1.08,GOOD
1790978417466,760,1994.0,-35.804016320029284,32000.0,103.8,98.0,-1.4,-0.2,1.08,GOOD
1790978417466,761,2000.0,-41.28597483732774,32000.0,103.8,98.0,-1.4,-0.2,1.08,GOOD
1790978417466,762,1996.0,-56.184157166508854,32000.0,103.8,98.0,-1.4,-0.2,1.08,GOOD
1790978417466,763,2028.0,-63.55762907873618,32000.0,103.8,98.0,-1.4,-0.2,1.08,GOOD
1790978417466,764,2050.0,-57.42197057484072,32000.0,103.8,98.0,-1.4,-0.2,1.08,GOOD
1790978417466,765,1976.0,-43.914086828009985,32000.0,103.8,98.0,-1.4,-0.2,1.08,GOOD
1790978417466,766,1991.0,-37.33843884420534,32000.0,103.8,98.0,-1.4,-0.2,1.08,GOOD
1790978417466,767,1963.0,-44.20457152734715,32000.0,103.8,98.0,-1.4,-0.2,1.08,GOOD
1790978417466,768,1951.0,-59.388618901222145,32000.0,103.8,98.0,-1.4,-0.2,1.08,GOOD
1790978417466,769,1940.0,-77.60678113411437,32000.0,103.8,98.0,-1.4,-0.2,1.08,GOOD
1790978417466,770,1946.0,-95.39028940197909,32000.0,103.8,98.0,-1.4,-0.2,1.08,GOOD
1790978417466,771,1976.0,-106.48958214221351,32000.0,103.8,98.0,-1.4,-0.2,1.08,GOOD
1790978417466,772,1897.0,-107.46064553374192,32000.0,103.8,98.0,-1.4,-0.2,1.08,GOOD
1790978417466,773,2012.0,-102.05608493008361,32000.0,103.8,98.0,-1.4,-0.2,1.08,GOOD
1790978417466,774,2070.0,-87.92509575261667,32000.0,103.8,98.0,-1.4,-0.2,1.08,GOOD
1790978417466,775,2084.0,-57.56038522513121,32000.0,103.8,98.0,-1.4,-0.2,1.08,GOOD
1790978417466,776,2118.0,-15.087971644803886,32000.0,103.8,98.0,-1.4,-0.2,1.08,GOOD
1790978417466,777,2099.0,27.558006672867464,32000.0,103.8,98.0,-1.4,-0.2,1.08,GOOD
1790978417466,778,2076.0,58.75470661479651,32000.0,103.8,98.0,-1.4,-0.2,1.08,GOOD
1790978417466,779,2097.0,69.81890196427567,32000.0,103.8,98.0,-1.4,-0.2,1.08,GOOD
1790978417466,780,2124.0,63.602963234407106,32000.0,103.8,98.0,-1.4,-0.2,1.08,GOOD
1790978417466,781,2132.0,54.29888723437039,32000.0,103.8,98.0,-1.4,-0.2,1.08,GOOD
1790978417466,782,2142.0,54.85196757178072,32000.0,103.8,98.0,-1.4,-0.2,1.08,GOOD
1790978417466,783,2145.0,67.9273521976469,32000.0,103.8,98.0,-1.4,-0.2,1.08,GOOD
1790978417466,784,2164.0,86.46895431546872,32000.0,103.8,98.0,-1.4,-0.2,1.08,GOOD
1790978417466,785,2176.0,101.20158271207758,32000.0,103.8,98.0,-1.4,-0.2,1.08,GOOD
1790978417466,786,2205.0,109.52361637530572,32000.0,103.8,98.0,-1.4,-0.2,1.08,GOOD
1790978417466,787,2174.0,115.73442592101406,32000.0,103.8,98.0,-1.4,-0.2,1.08,GOOD
1790978417466,788,2181.0,122.29095631255713,32000.0,103.8,98.0,-1.4,-0.2,1.08,GOOD
1790978417466,789,2214.0,127.94468343979716,32000.0,103.8,98.0,-1.4,-0.2,1.08,GOOD
1790978417466,790,2305.0,135.83762605950415,32000.0,103.8,98.0,-1.4,-0.2,1.08,GOOD
1790978417466,791,2289.0,152.92890489001513,32000.0,103.8,98.0,-1.4,-0.2,1.08,GOOD
1790978417466,792,2277.0,177.98163102439935,32000.0,103.8,98.0,-1.4,-0.2,1.08,GOOD
1790978417466,793,2280.0,201.12205090362306,32000.0,103.8,98.0,-1.4,-0.2,1.08,GOOD
1790978417466,794,2280.0,214.60985872987652,32000.0,103.8,98.0,-1.4,-0.2,1.08,GOOD
1790978417466,795,2190.0,211.51024097743414,32000.0,103.8,98.0,-1.4,-0.2,1.08,GOOD
1790978417466,796,2322.0,189.92687918257576,32000.0,103.8,98.0,-1.4,-0.2,1.08,GOOD
1790978417466,797,2330.0,169.53881495893523,32000.0,103.8,98.0,-1.4,-0.2,1.08,GOOD
1790978417466,798,2321.0,173.52140386210397,32000.0,103.8,98.0,-1.4,-0.2,1.08,GOOD
1790978417466,799,2295.0,196.64048186707817,32000.0,103.8,98.0,-1.4,-0.2,1.08,GOOD
1790978417466,800,2249.0,213.62544136050298,32000.0,103.8,98.0,-1.4,-0.2,1.08,GOOD
1790978418714,801,2243.0,205.92567894284338,65.0,99.4,98.0,-1.4,-0.1,1.08,GOOD
1790978418714,802,2234.0,175.72812623121627,66.0,99.4,98.0,-1.4,-0.1,1.08,GOOD
1790978418714,803,2109.0,135.73909441238672,65.0,99.4,98.0,-1.4,-0.1,1.08,GOOD
1790978418714,804,2000.0,86.74934910626452,63.0,99.4,98.0,-1.4,-0.1,1.08,GOOD
1790978418714,805,1994.0,22.516304481646973,59.0,99.4,98.0,-1.4,-0.1,1.08,GOOD
1790978418714,806,1966.0,-49.47143243031384,47.0,99.4,98.0,-1.4,-0.1,1.08,GOOD
1790978418714,807,1972.0,-111.764417703613,48.0,99.4,98.0,-1.4,-0.1,1.08,GOOD
1790978418714,808,2034.0,-148.66219453779289,48.0,99.4,98.0,-1.4,-0.1,1.08,GOOD
1790978418714,809,1823.0,-158.28230281367502,44.0,99.4,98.0,-1.4,-0.1,1.08,GOOD
1790978418714,810,1838.0,-164.35972074236827,42.0,99.4,98.0,-1.4,-0.1,1.08,GOOD
1790978418714,811,1856.0,-188.4923963540056,41.0,99.4,98.0,-1.4,-0.1,1.08,GOOD
1790978418714,812,1793.0,-225.8145065680318,38.0,99.4,98.0,-1.4,-0.1,1.08,GOOD
1790978418714,813,1838.0,-262.8657822361638,36.0,99.4,98.0,-1.4,-0.1,1.08,GOOD
1790978418714,814,1903.0,-282.80113626846,32.0,99.4,98.0,-1.4,-0.1,1.08,GOOD
1790978418714,815,1930.0,-267.85063165987333,27.0,99.4,98.0,-1.4,-0.1,1.08,GOOD
1790978418714,816,1923.0,-222.83061607845983,24.0,99.4,98.0,-1.4,-0.1,1.08,GOOD
1790978418714,817,1909.0,-176.5520531438621,19.0,99.4,98.0,-1.4,-0.1,1.08,GOOD
1790978418714,818,1906.0,-153.08811000369428,16.0,99.4,98.0,-1.4,-0.1,1.08,GOOD
1790978418714,819,1993.0,-148.9743796447413,12.0,99.4,98.0,-1.4,-0.1,1.08,GOOD
1790978418714,820,1997.0,-141.43191425582546,8.0,99.4,98.0,-1.4,-0.1,1.08,GOOD
1790978418714,821,2047.0,-117.16982817411895,4.0,99.4,98.0,-1.4,-0.1,1.08,GOOD
1790978418714,822,2055.0,-82.15961736685993,0.0,99.4,98.0,-1.4,-0.1,1.08,GOOD
1790978418714,823,2040.0,-48.83284096496709,1.0,99.4,98.0,-1.4,-0.1,1.08,GOOD
1790978418714,824,2055.0,-25.73038780587113,-4.0,99.4,98.0,-1.4,-0.1,1.08,GOOD
1790978418714,825,2025.0,-14.934593363924941,-5.0,99.4,98.0,-1.4,-0.1,1.08,GOOD
1790978418714,826,2027.0,-16.036423980332636,32000.0,99.4,98.0,-1.4,-0.1,1.08,GOOD
1790978418714,827,2043.0,-26.250092929788984,32000.0,99.4,98.0,-1.4,-0.1,1.08,GOOD
1790978418714,828,2057.0,-36.40725190351109,32000.0,99.4,98.0,-1.4,-0.1,1.08,GOOD
1790978418714,829,2054.0,-37.07409944933053,32000.0,99.4,98.0,-1.4,-0.1,1.08,GOOD
1790978418714,830,2071.0,-27.15998836178919,32000.0,99.4,98.0,-1.4,-0.1,1.08,GOOD
1790978418714,831,2110.0,-11.259634038006782,32000.0,99.4,98.0,-1.4,-0.1,1.08,GOOD
1790978418714,832,2075.0,5.1828189102558495,32000.0,99.4,98.0,-1.4,-0.1,1.08,GOOD
1790978418714,833,1978.0,11.701779101145569,32000.0,99.4,98.0,-1.4,-0.1,1.08,GOOD
1790978418714,834,2065.0,0.27484386306893294,32000.0,99.4,98.0,-1.4,-0.1,1.08,GOOD
1790978418714,835,2116.0,-15.582076990116468,32000.0,99.4,98.0,-1.4,-0.1,1.08,GOOD
1790978418714,836,2114.0,-14.649492203225371,32000.0,99.4,98.0,-1.4,-0.1,1.08,GOOD
1790978418714,837,2130.0,4.0937616713452085,32000.0,99.4,98.0,-1.4,-0.1,1.08,GOOD
1790978418714,838,2132.0,28.849472972699964,32000.0,99.4,98.0,-1.4,-0.1,1.08,GOOD
1790978418714,839,2138.0,51.826058554219145,32000.0,99.4,98.0,-1.4,-0.1,1.08,GOOD
1790978418714,840,2013.0,63.31452643111519,32000.0,99.4,98.0,-1.4,-0.1,1.08,GOOD
1790978418714,841,1981.0,46.680623238736324,32000.0,99.4,98.0,-1.4,-0.1,1.08,GOOD
1790978418714,842,2008.0,0.01663724775970099,32000.0,99.4,98.0,-1.4,-0.1,1.08,GOOD
1790978418714,843,2042.0,-49.8577347078139,32000.0,99.4,98.0,-1.4,-0.1,1.08,GOOD
1790978418714,844,2061.0,-72.81373983564391,32000.0,99.4,98.0,-1.4,-0.1,1.08,GOOD
1790978418714,845,2067.0,-62.79192314432753,32000.0,99.4,98.0,-1.4,-0.1,1.08,GOOD
1790978418714,846,2073.0,-35.05934061022326,32000.0,99.4,98.0,-1.4,-0.1,1.08,GOOD
1790978418714,847,1958.0,-12.725623206402101,32000.0,99.4,98.0,-1.4,-0.1,1.08,GOOD
1790978418714,848,2053.0,-12.365719466273445,32000.0,99.4,98.0,-1.4,-0.1,1.08,GOOD
1790978418714,849,2059.0,-26.76829382140037,32000.0,99.4,98.0,-1.4,-0.1,1.08,GOOD
1790978418714,850,2064.0,-35.66720127063901,32000.0,99.4,98.0,-1.4,-0.1,1.08,GOOD
1790978421997,851,2067.0,-31.64834348655384,-20.0,99.4,98.0,-1.3,-0.1,1.08,GOOD
1790978421997,852,2068.0,-19.102786674721756,-21.0,99.4,98.0,-1.3,-0.1,1.08,GOOD
1790978421997,853,2062.0,-4.6835057810707745,-20.0,99.4,98.0,-1.3,-0.1,1.08,GOOD
1790978421997,854,2044.0,3.5617599395345416,-19.0,99.4,98.0,-1.3,-0.1,1.08,GOOD
1790978421997,855,2041.0,-0.1989750187647772,-20.0,99.4,98.0,-1.3,-0.1,1.08,GOOD
1790978421997,856,2092.0,-11.156454372238294,-19.0,99.4,98.0,-1.3,-0.1,1.08,GOOD
1790978421997,857,2128.0,-13.489489615180494,-18.0,99.4,98.0,-1.3,-0.1,1.08,GOOD
1790978421997,858,2175.0,5.016483781188923,-18.0,99.4,98.0,-1.3,-0.1,1.08,GOOD
1790978421997,859,2690.0,60.85530742176674,-21.0,99.4,98.0,-1.3,-0.1,1.08,GOOD
1790978421997,860,2756.0,185.9934685736677,-21.0,99.4,98.0,-1.3,-0.1,1.08,GOOD
1790978421997,861,2784.0,375.52813371306786,-19.0,99.4,98.0,-1.3,-0.1,1.08,GOOD
1790978421997,862,2798.0,565.0655801148753,-19.0,99.4,98.0,-1.3,-0.1,1.08,GOOD
1790978421997,863,2778.0,693.8280043786951,-17.0,99.4,98.0,-1.3,-0.1,1.08,GOOD
1790978421997,864,2654.0,736.6154211166954,-17.0,99.4,98.0,-1.3,-0.1,1.08,GOOD
1790978421997,865,2427.0,685.5210396498155,-17.0,99.4,98.0,-1.3,-0.1,1.08,GOOD
1790978421997,866,2216.0,546.6261836197136,-15.0,99.4,98.0,-1.3,-0.1,1.08,GOOD
1790978421997,867,1946.0,346.8004909257504,-14.0,99.4,98.0,-1.3,-0.1,1.08,GOOD
1790978421997,868,1932.0,126.83629221997188,-17.0,99.4,98.0,-1.3,-0.1,1.08,GOOD
1790978421997,869,1926.0,-68.19055029097359,-17.0,99.4,98.0,-1.3,-0.1,1.08,GOOD
1790978421997,870,1932.0,-203.11577780540034,-17.0,99.4,98.0,-1.3,-0.1,1.08,GOOD
1790978421997,871,2049.0,-262.13480545331214,-17.0,99.4,98.0,-1.3,-0.1,1.08,GOOD
1790978421997,872,1994.0,-246.0031094462052,-16.0,99.4,98.0,-1.3,-0.1,1.08,GOOD
1790978421997,873,2110.0,-178.2735819149642,-17.0,99.4,98.0,-1.3,-0.1,1.08,GOOD
1790978421997,874,2056.0,-101.2962117905529,-18.0,99.4,98.0,-1.3,-0.1,1.08,GOOD
1790978421997,875,2032.0,-55.33788619026554,-22.0,99.4,98.0,-1.3,-0.1,1.08,GOOD
1790978421998,876,2050.0,-54.33695252569882,32000.0,99.4,98.0,-1.3,-0.1,1.08,GOOD
1790978421998,877,2064.0,-74.26792966175765,32000.0,99.4,98.0,-1.3,-0.1,1.08,GOOD
1790978421998,878,2068.0,-82.9270968238756,32000.0,99.4,98.0,-1.3,-0.1,1.08,GOOD
1790978421998,879,2079.0,-74.88912762221506,32000.0,99.4,98.0,-1.3,-0.1,1.08,GOOD
1790978421998,880,2091.0,-64.30956328724469,32000.0,99.4,98.0,-1.3,-0.1,1.08,GOOD
1790978421998,881,2129.0,-57.25029981779707,32000.0,99.4,98.0,-1.3,-0.1,1.08,GOOD
1790978421998,882,2135.0,-44.57530212193532,32000.0,99.4,98.0,-1.3,-0.1,1.08,GOOD
1790978421998,883,2118.0,-21.5102639588518,32000.0,99.4,98.0,-1.3,-0.1,1.08,GOOD
1790978421998,884,2135.0,0.3340059319070732,32000.0,99.4,98.0,-1.3,-0.1,1.08,GOOD
1790978421998,885,2110.0,7.036610076176389,32000.0,99.4,98.0,-1.3,-0.1,1.08,GOOD
1790978421998,886,2126.0,-1.5369896089290975,32000.0,99.4,98.0,-1.3,-0.1,1.08,GOOD
1790978421998,887,2181.0,-10.152089122782474,32000.0,99.4,98.0,-1.3,-0.1,1.08,GOOD
1790978421998,888,2196.0,-1.8588106310734185,32000.0,99.4,98.0,-1.3,-0.1,1.08,GOOD
1790978421998,889,2103.0,18.95597392328794,32000.0,99.4,98.0,-1.3,-0.1,1.08,GOOD
1790978421998,890,2000.0,23.59376586547141,32000.0,99.4,98.0,-1.3,-0.1,1.08,GOOD
1790978421998,891,2141.0,-3.046517385594928,32000.0,99.4,98.0,-1.3,-0.1,1.08,GOOD
1790978421998,892,2086.0,-37.179202778058944,32000.0,99.4,98.0,-1.3,-0.1,1.08,GOOD
1790978421998,893,2060.0,-54.75532901136751,32000.0,99.4,98.0,-1.3,-0.1,1.08,GOOD
1790978421998,894,2100.0,-59.35821538216456,32000.0,99.4,98.0,-1.3,-0.1,1.08,GOOD
1790978421998,895,2053.0,-59.20505813705013,32000.0,99.4,98.0,-1.3,-0.1,1.08,GOOD
1790978421998,896,2119.0,-55.556733212302554,32000.0,99.4,98.0,-1.3,-0.1,1.08,GOOD
1790978421998,897,2103.0,-47.838366398160105,32000.0,99.4,98.0,-1.3,-0.1,1.08,GOOD
1790978421998,898,2304.0,-30.197547069880567,32000.0,99.4,98.0,-1.3,-0.1,1.08,GOOD
1790978421998,899,2335.0,11.088369345906091,32000.0,99.4,98.0,-1.3,-0.1,1.08,GOOD
1790978421998,900,2304.0,77.60310480304585,32000.0,99.4,98.0,-1.3,-0.1,1.08,GOOD
1790978421998,901,2348.0,146.17941440633552,32000.0,99.4,98.0,-1.3,-0.1,1.08,GOOD
1790978421998,902,2345.0,194.06195905155107,32000.0,99.4,98.0,-1.3,-0.1,1.08,GOOD
1790978421998,903,2358.0,214.91693284063984,32000.0,99.4,98.0,-1.3,-0.1,1.08,GOOD
1790978421998,904,2357.0,213.26123197844632,32000.0,99.4,98.0,-1.3,-0.1,1.08,GOOD
1790978421998,905,2322.0,200.11912367963384,32000.0,99.4,98.0,-1.3,-0.1,1.08,GOOD
1790978421998,906,2277.0,184.2473448255139,32000.0,99.4,98.0,-1.3,-0.1,1.08,GOOD
1790978421998,907,2125.0,160.1055043701292,32000.0,99.4,98.0,-1.3,-0.1,1.08,GOOD
1790978421998,908,2168.0,114.07319256350938,32000.0,99.4,98.0,-1.3,-0.1,1.08,GOOD
1790978421998,909,2234.0,54.21476438706511,32000.0,99.4,98.0,-1.3,-0.1,1.08,GOOD
1790978421998,910,2219.0,12.057199785637613,32000.0,99.4,98.0,-1.3,-0.1,1.08,GOOD
1790978421998,911,2220.0,5.256326222183903,32000.0,99.4,98.0,-1.3,-0.1,1.08,GOOD
1790978421998,912,2188.0,22.77225170000252,32000.0,99.4,98.0,-1.3,-0.1,1.08,GOOD
1790978421998,913,2130.0,39.115301161175175,32000.0,99.4,98.0,-1.3,-0.1,1.08,GOOD
1790978421998,914,2084.0,30.562410222130012,32000.0,99.4,98.0,-1.3,-0.1,1.08,GOOD
1790978421998,915,2073.0,-8.10264135133928,32000.0,99.4,98.0,-1.3,-0.1,1.08,GOOD
1790978421998,916,2050.0,-59.396749178963304,32000.0,99.4,98.0,-1.3,-0.1,1.08,GOOD
1790978421998,917,2031.0,-101.26266005544942,32000.0,99.4,98.0,-1.3,-0.1,1.08,GOOD
1790978421998,918,2034.0,-125.00214846587158,32000.0,99.4,98.0,-1.3,-0.1,1.08,GOOD
1790978421998,919,2007.0,-135.64858169794348,32000.0,99.4,98.0,-1.3,-0.1,1.08,GOOD
1790978421998,920,1999.0,-142.98513840080003,32000.0,99.4,98.0,-1.3,-0.1,1.08,GOOD
1790978421998,921,2026.0,-150.6821380055929,32000.0,99.4,98.0,-1.3,-0.1,1.08,GOOD
1790978421998,922,2024.0,-153.47063248727198,32000.0,99.4,98.0,-1.3,-0.1,1.08,GOOD
1790978421998,923,2037.0,-147.6165489615186,32000.0,99.4,98.0,-1.3,-0.1,1.08,GOOD
1790978421998,924,1997.0,-138.40285789187422,32000.0,99.4,98.0,-1.3,-0.1,1.08,GOOD
1790978421998,925,1994.0,-135.08131548583196,32000.0,99.4,98.0,-1.3,-0.1,1.08,GOOD
1790978424399,926,2010.0,-139.97179355145374,17.0,98.1,98.0,-1.3,-0.2,1.08,GOOD
1790978424399,927,2012.0,-146.04196837619548,17.0,98.1,98.0,-1.3,-0.2,1.08,GOOD
1790978424399,928,1998.0,-147.79071811932477,18.0,98.1,98.0,-1.3,-0.2,1.08,GOOD
1790978424399,929,2004.0,-146.7124529897111,18.0,98.1,98.0,-1.3,-0.2,1.08,GOOD
1790978424399,930,1985.0,-145.58901069028258,18.0,98.1,98.0,-1.3,-0.2,1.08,GOOD
1790978424399,931,2018.0,-144.483312365253,11.0,98.1,98.0,-1.3,-0.2,1.08,GOOD
1790978424399,932,2003.0,-141.73189820154,13.0,98.1,98.0,-1.3,-0.2,1.08,GOOD
1790978424399,933,2001.0,-137.85041861793184,13.0,98.1,98.0,-1.3,-0.2,1.08,GOOD
1790978424399,934,1981.0,-136.07251045363103,15.0,98.1,98.0,-1.3,-0.2,1.08,GOOD
1790978424399,935,1983.0,-137.84576205654818,15.0,98.1,98.0,-1.3,-0.2,1.08,GOOD
1790978424399,936,1999.0,-140.82809332852395,17.0,98.1,98.0,-1.3,-0.2,1.08,GOOD
1790978424399,937,2027.0,-140.5015332200656,20.0,98.1,98.0,-1.3,-0.2,1.08,GOOD
1790978424399,938,2022.0,-133.79412727195148,20.0,98.1,98.0,-1.3,-0.2,1.08,GOOD
1790978424399,939,2015.0,-122.32040023922507,19.0,98.1,98.0,-1.3,-0.2,1.08,GOOD
1790978424399,940,1990.0,-111.59813737316199,16.0,98.1,98.0,-1.3,-0.2,1.08,GOOD
1790978424399,941,1997.0,-107.23767621228639,18.0,98.1,98.0,-1.3,-0.2,1.08,GOOD
1790978424399,942,1998.0,-110.80763587682742,20.0,98.1,98.0,-1.3,-0.2,1.08,GOOD
1790978424399,943,1943.0,-120.9704396312808,19.0,98.1,98.0,-1.3,-0.2,1.08,GOOD
1790978424399,944,2056.0,-132.12447903442256,18.0,98.1,98.0,-1.3,-0.2,1.08,GOOD
1790978424399,945,2124.0,-127.064625523018,18.0,98.1,98.0,-1.3,-0.2,1.08,GOOD
1790978424399,946,2244.0,-87.91541979233153,16.0,98.1,98.0,-1.3,-0.2,1.08,GOOD
1790978424399,947,2429.0,-10.191356088345666,16.0,98.1,98.0,-1.3,-0.2,1.08,GOOD
1790978424399,948,2295.0,92.60964772846333,16.0,98.1,98.0,-1.3,-0.2,1.08,GOOD
1790978424399,949,2798.0,202.89461401803794,13.0,98.1,98.0,-1.3,-0.2,1.08,GOOD
1790978424399,950,2774.0,329.6724982277238,14.0,98.1,98.0,-1.3,-0.2,1.08,GOOD
1790978424400,951,2700.0,470.03129928108274,32000.0,98.1,98.0,-1.3,-0.2,1.08,GOOD
1790978424400,952,2499.0,566.0923289360707,32000.0,98.1,98.0,-1.3,-0.2,1.08,GOOD
1790978424400,953,2198.0,555.8128492912019,32000.0,98.1,98.0,-1.3,-0.2,1.08,GOOD
1790978424400,954,1935.0,419.2073722161764,32000.0,98.1,98.0,-1.3,-0.2,1.08,GOOD
1790978424400,955,1955.0,188.60318614795506,32000.0,98.1,98.0,-1.3,-0.2,1.08,GOOD
1790978424400,956,1978.0,-53.289710988315036,32000.0,98.1,98.0,-1.3,-0.2,1.08,GOOD
1790978424400,957,1889.0,-223.62651546428145,32000.0,98.1,98.0,-1.3,-0.2,1.08,GOOD
1790978424400,958,2015.0,-291.070436972192,32000.0,98.1,98.0,-1.3,-0.2,1.08,GOOD
1790978424400,959,2013.0,-268.8851347841046,32000.0,98.1,98.0,-1.3,-0.2,1.08,GOOD
1790978424400,960,1959.0,-201.35857039498904,32000.0,98.1,98.0,-1.3,-0.2,1.08,GOOD
1790978424400,961,1854.0,-153.4610902029243,32000.0,98.1,98.0,-1.3,-0.2,1.08,GOOD
1790978424400,962,1832.0,-165.7791243592377,32000.0,98.1,98.0,-1.3,-0.2,1.08,GOOD
1790978424400,963,1873.0,-220.4823312477157,32000.0,98.1,98.0,-1.3,-0.2,1.08,GOOD
1790978424400,964,1877.0,-268.4717164014497,32000.0,98.1,98.0,-1.3,-0.2,1.08,GOOD
1790978424400,965,1934.0,-281.32094120217187,32000.0,98.1,98.0,-1.3,-0.2,1.08,GOOD
1790978424400,966,1939.0,-263.988671249188,32000.0,98.1,98.0,-1.3,-0.2,1.08,GOOD
1790978424400,967,1984.0,-231.51254974507154,32000.0,98.1,98.0,-1.3,-0.2,1.08,GOOD
1790978424400,968,1999.0,-191.67090722719598,32000.0,98.1,98.0,-1.3,-0.2,1.08,GOOD
1790978424400,969,1958.0,-151.11290498955086,32000.0,98.1,98.0,-1.3,-0.2,1.08,GOOD
1790978424400,970,1925.0,-126.38409393366486,32000.0,98.1,98.0,-1.3,-0.2,1.08,GOOD
1790978424400,971,1893.0,-132.4757904362414,32000.0,98.1,98.0,-1.3,-0.2,1.08,GOOD
1790978424400,972,1947.0,-161.82276292677813,32000.0,98.1,98.0,-1.3,-0.2,1.08,GOOD
1790978424400,973,1994.0,-185.06074830404302,32000.0,98.1,98.0,-1.3,-0.2,1.08,GOOD
1790978424400,974,2031.0,-177.43946651399938,32000.0,98.1,98.0,-1.3,-0.2,1.08,GOOD
1790978424400,975,2008.0,-142.273072679365,32000.0,98.1,98.0,-1.3,-0.2,1.08,GOOD
1790978424400,976,1960.0,-105.79997419424477,32000.0,98.1,98.0,-1.3,-0.2,1.08,GOOD
1790978424400,977,1920.0,-92.70276045003425,32000.0,98.1,98.0,-1.3,-0.2,1.08,GOOD
1790978424400,978,1920.0,-107.49545650552014,32000.0,98.1,98.0,-1.3,-0.2,1.08,GOOD
1790978424400,979,1941.0,-135.6141120198526,32000.0,98.1,98.0,-1.3,-0.2,1.08,GOOD
1790978424400,980,1954.0,-158.17663972509894,32000.0,98.1,98.0,-1.3,-0.2,1.08,GOOD
1790978424400,981,1820.0,-170.00141313980342,32000.0,98.1,98.0,-1.3,-0.2,1.08,GOOD
1790978424400,982,1885.0,-180.6586389525193,32000.0,98.1,98.0,-1.3,-0.2,1.08,GOOD
1790978424400,983,1801.0,-195.5444562653737,32000.0,98.1,98.0,-1.3,-0.2,1.08,GOOD
1790978424400,984,1797.0,-214.9522830082581,32000.0,98.1,98.0,-1.3,-0.2,1.08,GOOD
1790978424400,985,1796.0,-240.23709091028326,32000.0,98.1,98.0,-1.3,-0.2,1.08,GOOD
1790978424400,986,1861.0,-262.0389615968703,32000.0,98.1,98.0,-1.3,-0.2,1.08,GOOD
1790978424400,987,1914.0,-260.83704047025344,32000.0,98.1,98.0,-1.3,-0.2,1.08,GOOD
1790978424400,988,1918.0,-228.29763464739057,32000.0,98.1,98.0,-1.3,-0.2,1.08,GOOD
1790978424400,989,1956.0,-178.3777053783691,32000.0,98.1,98.0,-1.3,-0.2,1.08,GOOD
1790978424400,990,1991.0,-130.9218679509828,32000.0,98.1,98.0,-1.3,-0.2,1.08,GOOD
1790978424400,991,1987.0,-94.39638813241154,32000.0,98.1,98.0,-1.3,-0.2,1.08,GOOD
1790978424400,992,2067.0,-66.18418229308207,32000.0,98.1,98.0,-1.3,-0.2,1.08,GOOD
1790978424400,993,2119.0,-36.40461127318781,32000.0,98.1,98.0,-1.3,-0.2,1.08,GOOD
1790978424400,994,2108.0,1.0407665033471418,32000.0,98.1,98.0,-1.3,-0.2,1.08,GOOD
1790978424400,995,2054.0,35.783902906230686,32000.0,98.1,98.0,-1.3,-0.2,1.08,GOOD
1790978424400,996,2164.0,55.6827333696878,32000.0,98.1,98.0,-1.3,-0.2,1.08,GOOD
1790978424400,997,2298.0,73.29865786826869,32000.0,98.1,98.0,-1.3,-0.2,1.08,GOOD
1790978424400,998,2306.0,112.02330805549144,32000.0,98.1,98.0,-1.3,-0.2,1.08,GOOD
1790978424400,999,2381.0,172.61651021543577,32000.0,98.1,98.0,-1.3,-0.2,1.08,GOOD
1790978424400,1000,2347.0,237.17273138306854,32000.0,98.1,98.0,-1.3,-0.2,1.08,GOOD
1790978424539,1001,2130.0,278.9931565993912,15.0,94.8,98.0,-1.3,-0.2,1.08,GOOD
1790978424539,1002,2135.0,267.0870459819623,16.0,94.8,98.0,-1.3,-0.2,1.08,GOOD
1790978424539,1003,2114.0,199.12161401518802,15.0,94.8,98.0,-1.3,-0.2,1.08,GOOD
1790978424539,1004,2095.0,110.21144289599808,13.0,94.8,98.0,-1.3,-0.2,1.08,GOOD
1790978424539,1005,2098.0,38.61320019976955,12.0,94.8,98.0,-1.3,-0.2,1.08,GOOD
1790978424539,1006,2129.0,5.8344530131222,13.0,94.8,98.0,-1.3,-0.2,1.08,GOOD
1790978424539,1007,2143.0,13.591619363450478,14.0,94.8,98.0,-1.3,-0.2,1.08,GOOD
1790978424539,1008,2136.0,42.64493224174079,15.0,94.8,98.0,-1.3,-0.2,1.08,GOOD
1790978424539,1009,2146.0,66.64646323899613,13.0,94.8,98.0,-1.3,-0.2,1.08,GOOD
1790978424539,1010,2170.0,75.49823454582469,16.0,94.8,98.0,-1.3,-0.2,1.08,GOOD
1790978424539,1011,2172.0,79.14115364108758,16.0,94.8,98.0,-1.3,-0.2,1.08,GOOD
1790978424539,1012,2204.0,88.80202147218955,14.0,94.8,98.0,-1.3,-0.2,1.08,GOOD
1790978424539,1013,2204.0,104.02295068007592,15.0,94.8,98.0,-1.3,-0.2,1.08,GOOD
1790978424539,1014,2222.0,117.31727899457813,17.0,94.8,98.0,-1.3,-0.2,1.08,GOOD
1790978424539,1015,2242.0,126.22471425640461,17.0,94.8,98.0,-1.3,-0.2,1.08,GOOD
1790978424539,1016,2269.0,137.15310086522555,19.0,94.8,98.0,-1.3,-0.2,1.08,GOOD
1790978424539,1017,2273.0,154.97981372113873,20.0,94.8,98.0,-1.3,-0.2,1.08,GOOD
1790978424539,1018,2271.0,173.9110133585496,20.0,94.8,98.0,-1.3,-0.2,1.08,GOOD
1790978424539,1019,2284.0,184.41459849805972,18.0,94.8,98.0,-1.3,-0.2,1.08,GOOD
1790978424539,1020,2308.0,186.59751451501063,15.0,94.8,98.0,-1.3,-0.2,1.08,GOOD
1790978424539,1021,2196.0,184.97768379600467,16.0,94.8,98.0,-1.3,-0.2,1.08,GOOD
1790978424539,1022,2344.0,179.8354617163376,15.0,94.8,98.0,-1.3,-0.2,1.08,GOOD
1790978424539,1023,2342.0,178.52163150741524,14.0,94.8,98.0,-1.3,-0.2,1.08,GOOD
1790978424539,1024,2341.0,189.48592420385017,14.0,94.8,98.0,-1.3,-0.2,1.08,GOOD
1790978424539,1025,2342.0,206.84122609400524,15.0,94.8,98.0,-1.3,-0.2,1.08,GOOD
1790978424540,1026,2333.0,221.65233066192877,32000.0,94.8,98.0,-1.3,-0.2,1.08,GOOD
1790978424540,1027,2336.0,230.10068450971033,32000.0,94.8,98.0,-1.3,-0.2,1.08,GOOD
1790978424540,1028,2330.0,229.02910703336642,32000.0,94.8,98.0,-1.3,-0.2,1.08,GOOD
1790978424540,1029,2313.0,216.97137331421519,32000.0,94.8,98.0,-1.3,-0.2,1.08,GOOD
1790978424540,1030,2253.0,196.02797732623358,32000.0,94.8,98.0,-1.3,-0.2,1.08,GOOD
1790978424540,1031,2162.0,166.972428748502,32000.0,94.8,98.0,-1.3,-0.2,1.08,GOOD
1790978424540,1032,2086.0,124.43429541236881,32000.0,94.8,98.0,-1.3,-0.2,1.08,GOOD
1790978424540,1033,2108.0,65.86779233057044,32000.0,94.8,98.0,-1.3,-0.2,1.08,GOOD
1790978424540,1034,2136.0,5.140607565104898,32000.0,94.8,98.0,-1.3,-0.2,1.08,GOOD
1790978424540,1035,2116.0,-35.40548651515488,32000.0,94.8,98.0,-1.3,-0.2,1.08,GOOD
1790978424540,1036,2123.0,-45.924733395263225,32000.0,94.8,98.0,-1.3,-0.2,1.08,GOOD
1790978424540,1037,2068.0,-35.88301912080702,32000.0,94.8,98.0,-1.3,-0.2,1.08,GOOD
1790978424540,1038,2030.0,-27.790140687563863,32000.0,94.8,98.0,-1.3,-0.2,1.08,GOOD
1790978424540,1039,2006.0,-41.566180293141045,32000.0,94.8,98.0,-1.3,-0.2,1.08,GOOD
1790978424540,1040,1992.0,-77.2885370809314,32000.0,94.8,98.0,-1.3,-0.2,1.08,GOOD
1790978424540,1041,2003.0,-116.28347041768382,32000.0,94.8,98.0,-1.3,-0.2,1.08,GOOD
1790978424540,1042,1991.0,-139.40189229617982,32000.0,94.8,98.0,-1.3,-0.2,1.08,GOOD
1790978424540,1043,1943.0,-145.16122501297184,32000.0,94.8,98.0,-1.3,-0.2,1.08,GOOD
1790978424540,1044,1917.0,-149.34847925096994,32000.0,94.8,98.0,-1.3,-0.2,1.08,GOOD
1790978424540,1045,1850.0,-166.93829541927502,32000.0,94.8,98.0,-1.3,-0.2,1.08,GOOD
1790978424540,1046,1952.0,-195.14958462921953,32000.0,94.8,98.0,-1.3,-0.2,1.08,GOOD
1790978424540,1047,1934.0,-213.96728187035978,32000.0,94.8,98.0,-1.3,-0.2,1.08,GOOD
1790978424540,1048,1960.0,-209.85848348254208,32000.0,94.8,98.0,-1.3,-0.2,1.08,GOOD
1790978424540,1049,1959.0,-189.32621076665617,32000.0,94.8,98.0,-1.3,-0.2,1.08,GOOD
1790978424540,1050,1960.0,-165.34613624697369,32000.0,94.8,98.0,-1.3,-0.2,1.08,GOOD
1790978424699,1051,1963.0,-146.37564213648778,32000.0,94.8,98.0,-1.5,-0.1,1.08,GOOD
1790978424699,1052,1982.0,-134.97107225550462,32000.0,94.8,98.0,-1.5,-0.1,1.08,GOOD
1790978424699,1053,1962.0,-129.65536313762732,32000.0,94.8,98.0,-1.5,-0.1,1.08,GOOD
1790978424699,1054,1912.0,-130.70063688844385,32000.0,94.8,98.0,-1.5,-0.1,1.08,GOOD
1790978424699,1055,1941.0,-139.08753773895478,32000.0,94.8,98.0,-1.5,-0.1,1.08,GOOD
1790978424699,1056,1968.0,-148.2270616687394,32000.0,94.8,98.0,-1.5,-0.1,1.08,GOOD
1790978424699,1057,1968.0,-148.72549298900947,32000.0,94.8,98.0,-1.5,-0.1,1.08,GOOD
1790978424699,1058,1949.0,-141.13319882557033,32000.0,94.8,98.0,-1.5,-0.1,1.08,GOOD
1790978424699,1059,1959.0,-132.50115668483176,32000.0,94.8,98.0,-1.5,-0.1,1.08,GOOD
1790978424699,1060,1964.0,-125.20957188159039,32000.0,94.8,98.0,-1.5,-0.1,1.08,GOOD
1790978424699,1061,1968.0,-118.11364705686758,32000.0,94.8,98.0,-1.5,-0.1,1.08,GOOD
1790978424699,1062,1967.0,-112.70386403838403,32000.0,94.8,98.0,-1.5,-0.1,1.08,GOOD
1790978424699,1063,1864.0,-114.9103548890992,32000.0,94.8,98.0,-1.5,-0.1,1.08,GOOD
1790978424699,1064,1815.0,-133.42886485728087,32000.0,94.8,98.0,-1.5,-0.1,1.08,GOOD
1790978424699,1065,1806.0,-169.47422543473266,32000.0,94.8,98.0,-1.5,-0.1,1.08,GOOD
1790978424699,1066,1752.0,-213.40555547405586,32000.0,94.8,98.0,-1.5,-0.1,1.08,GOOD
1790978424699,1067,1647.0,-260.48162187041186,32000.0,94.8,98.0,-1.5,-0.1,1.08,GOOD
1790978424699,1068,1691.0,-311.16206097852546,32000.0,94.8,98.0,-1.5,-0.1,1.08,GOOD
1790978424699,1069,2009.0,-340.25763554606135,32000.0,94.8,98.0,-1.5,-0.1,1.08,GOOD
1790978424699,1070,2025.0,-302.8389638357258,32000.0,94.8,98.0,-1.5,-0.1,1.08,GOOD
1790978424699,1071,2030.0,-198.7141534891899,32000.0,94.8,98.0,-1.5,-0.1,1.08,GOOD
1790978424699,1072,2033.0,-82.58673725389896,32000.0,94.8,98.0,-1.5,-0.1,1.08,GOOD
1790978424699,1073,2049.0,-0.8198317555448522,32000.0,94.8,98.0,-1.5,-0.1,1.08,GOOD
1790978424699,1074,2027.0,36.31187778999243,32000.0,94.8,98.0,-1.5,-0.1,1.08,GOOD
1790978424699,1075,2013.0,35.59563247783326,32000.0,94.8,98.0,-1.5,-0.1,1.08,GOOD
1790978424700,1076,1964.0,8.474909446178858,32000.0,94.8,98.0,-1.5,-0.1,1.08,GOOD
1790978424700,1077,2025.0,-26.094588258512225,32000.0,94.8,98.0,-1.5,-0.1,1.08,GOOD
1790978424700,1078,2006.0,-44.92438234880895,32000.0,94.8,98.0,-1.5,-0.1,1.08,GOOD
1790978424700,1079,1995.0,-41.11295803299224,32000.0,94.8,98.0,-1.5,-0.1,1.08,GOOD
1790978424700,1080,2016.0,-29.498923166550206,32000.0,94.8,98.0,-1.5,-0.1,1.08,GOOD
1790978424700,1081,2052.0,-21.873397841296036,32000.0,94.8,98.0,-1.5,-0.1,1.08,GOOD
1790978424700,1082,2040.0,-14.355422876780391,32000.0,94.8,98.0,-1.5,-0.1,1.08,GOOD
1790978424700,1083,2023.0,-2.327184087004634,32000.0,94.8,98.0,-1.5,-0.1,1.08,GOOD
1790978424700,1084,2001.0,8.202573552353904,32000.0,94.8,98.0,-1.5,-0.1,1.08,GOOD
1790978424700,1085,1996.0,7.301750779781834,32000.0,94.8,98.0,-1.5,-0.1,1.08,GOOD
1790978424700,1086,1994.0,-6.930381508437836,32000.0,94.8,98.0,-1.5,-0.1,1.08,GOOD
1790978424700,1087,2033.0,-23.86638294176001,32000.0,94.8,98.0,-1.5,-0.1,1.08,GOOD
1790978424700,1088,2022.0,-28.811135752388257,32000.0,94.8,98.0,-1.5,-0.1,1.08,GOOD
1790978424700,1089,2025.0,-18.5439673737416,32000.0,94.8,98.0,-1.5,-0.1,1.08,GOOD
1790978424700,1090,2030.0,-3.3450664320573216,32000.0,94.8,98.0,-1.5,-0.1,1.08,GOOD
1790978424700,1091,2050.0,7.155350340767576,32000.0,94.8,98.0,-1.5,-0.1,1.08,GOOD
1790978424700,1092,2037.0,12.228138738317323,32000.0,94.8,98.0,-1.5,-0.1,1.08,GOOD
1790978424700,1093,2011.0,14.15290231801714,32000.0,94.8,98.0,-1.5,-0.1,1.08,GOOD
1790978424700,1094,1996.0,11.830292095169508,32000.0,94.8,98.0,-1.5,-0.1,1.08,GOOD
1790978424700,1095,1974.0,2.401559673844803,32000.0,94.8,98.0,-1.5,-0.1,1.08,GOOD
1790978424700,1096,2009.0,-13.041926197133138,32000.0,94.8,98.0,-1.5,-0.1,1.08,GOOD
1790978424700,1097,2032.0,-25.52966855446619,32000.0,94.8,98.0,-1.5,-0.1,1.08,GOOD
1790978424700,1098,1924.0,-29.001769155133484,32000.0,94.8,98.0,-1.5,-0.1,1.08,GOOD
1790978424700,1099,2044.0,-28.000737164910348,32000.0,94.8,98.0,-1.5,-0.1,1.08,GOOD
1790978424700,1100,1998.0,-23.6740797405956,32000.0,94.8,98.0,-1.5,-0.1,1.08,GOOD
1790978424997,1101,2004.0,-15.6874538548551,28.0,93.0,98.0,-1.3,-0.2,1.08,GOOD
1790978424997,1102,1984.0,-11.470695751158953,27.0,93.0,98.0,-1.3,-0.2,1.08,GOOD
1790978424997,1103,1954.0,-15.625998529298908,27.0,93.0,98.0,-1.3,-0.2,1.08,GOOD
1790978424997,1104,1910.0,-27.613069004404608,26.0,93.0,98.0,-1.3,-0.2,1.08,GOOD
1790978424997,1105,2091.0,-40.10688744241136,29.0,93.0,98.0,-1.3,-0.2,1.08,GOOD
1790978424997,1106,2071.0,-35.144269202662024,28.0,93.0,98.0,-1.3,-0.2,1.08,GOOD
1790978424997,1107,2051.0,-7.270176840610948,28.0,93.0,98.0,-1.3,-0.2,1.08,GOOD
1790978424997,1108,2072.0,27.147455814615245,34.0,93.0,98.0,-1.3,-0.2,1.08,GOOD
1790978424997,1109,2040.0,53.632503718400706,35.0,93.0,98.0,-1.3,-0.2,1.08,GOOD
1790978424997,1110,1936.0,61.31559846476964,36.0,93.0,98.0,-1.3,-0.2,1.08,GOOD
1790978424997,1111,1905.0,36.10790788524234,38.0,93.0,98.0,-1.3,-0.2,1.08,GOOD
1790978424997,1112,1908.0,-19.065609095837022,43.0,93.0,98.0,-1.3,-0.2,1.08,GOOD
1790978424997,1113,1916.0,-75.93505782562225,43.0,93.0,98.0,-1.3,-0.2,1.08,GOOD
1790978424997,1114,1941.0,-106.00969520388945,45.0,93.0,98.0,-1.3,-0.2,1.08,GOOD
1790978424997,1115,1992.0,-101.44613021605855,50.0,93.0,98.0,-1.3,-0.2,1.08,GOOD
1790978424997,1116,1977.0,-73.48880820074748,54.0,93.0,98.0,-1.3,-0.2,1.08,GOOD
1790978424997,1117,1936.0,-43.41121474454215,59.0,93.0,98.0,-1.3,-0.2,1.08,GOOD
1790978424997,1118,1942.0,-28.599978229142174,62.0,93.0,98.0,-1.3,-0.2,1.08,GOOD
1790978424997,1119,2012.0,-27.44264929458544,63.0,93.0,98.0,-1.3,-0.2,1.08,GOOD
1790978424997,1120,1959.0,-26.91229852855721,67.0,93.0,98.0,-1.3,-0.2,1.08,GOOD
1790978424997,1121,2007.0,-22.994499142562773,66.0,93.0,98.0,-1.3,-0.2,1.08,GOOD
1790978424997,1122,2008.0,-16.85550361930565,69.0,93.0,98.0,-1.3,-0.2,1.08,GOOD
1790978424997,1123,2044.0,-4.3777056151143725,69.0,93.0,98.0,-1.3,-0.2,1.08,GOOD
1790978424997,1124,2026.0,15.564968917680599,63.0,93.0,98.0,-1.3,-0.2,1.08,GOOD
1790978424997,1125,2051.0,35.3393132430015,64.0,93.0,98.0,-1.3,-0.2,1.08,GOOD
1790978424998,1126,1964.0,44.14555953911901,32000.0,93.0,98.0,-1.3,-0.2,1.08,GOOD
1790978424998,1127,1971.0,35.067390149972994,32000.0,93.0,98.0,-1.3,-0.2,1.08,GOOD
1790978424998,1128,2116.0,18.682996100397535,32000.0,93.0,98.0,-1.3,-0.2,1.08,GOOD
1790978424998,1129,2152.0,22.796369501351407,32000.0,93.0,98.0,-1.3,-0.2,1.08,GOOD
1790978424998,1130,2339.0,66.292289052067,32000.0,93.0,98.0,-1.3,-0.2,1.08,GOOD
1790978424998,1131,2550.0,155.0863318269246,32000.0,93.0,98.0,-1.3,-0.2,1.08,GOOD
1790978424998,1132,2721.0,292.6354514865974,32000.0,93.0,98.0,-1.3,-0.2,1.08,GOOD
1790978424998,1133,2799.0,465.1085020505905,32000.0,93.0,98.0,-1.3,-0.2,1.08,GOOD
1790978424998,1134,2817.0,632.6092648920021,32000.0,93.0,98.0,-1.3,-0.2,1.08,GOOD
1790978424998,1135,2653.0,745.2237492696479,32000.0,93.0,98.0,-1.3,-0.2,1.08,GOOD
1790978424998,1136,2290.0,755.7130651152283,32000.0,93.0,98.0,-1.3,-0.2,1.08,GOOD
1790978424998,1137,1770.0,623.6071265929897,32000.0,93.0,98.0,-1.3,-0.2,1.08,GOOD
1790978424998,1138,1772.0,350.1576262688598,32000.0,93.0,98.0,-1.3,-0.2,1.08,GOOD
1790978424998,1139,1761.0,21.322529331607154,32000.0,93.0,98.0,-1.3,-0.2,1.08,GOOD
1790978424998,1140,1870.0,-237.0058136711542,32000.0,93.0,98.0,-1.3,-0.2,1.08,GOOD
1790978424998,1141,1970.0,-347.76635124751135,32000.0,93.0,98.0,-1.3,-0.2,1.08,GOOD
1790978424998,1142,2063.0,-308.48689118639777,32000.0,93.0,98.0,-1.3,-0.2,1.08,GOOD
1790978424998,1143,2058.0,-174.75992708653996,32000.0,93.0,98.0,-1.3,-0.2,1.08,GOOD
1790978424998,1144,2038.0,-32.96202889174215,32000.0,93.0,98.0,-1.3,-0.2,1.08,GOOD
1790978424998,1145,2028.0,46.46817911776664,32000.0,93.0,98.0,-1.3,-0.2,1.08,GOOD
1790978424998,1146,2009.0,48.99970295167013,32000.0,93.0,98.0,-1.3,-0.2,1.08,GOOD
1790978424998,1147,2004.0,10.268909579686595,32000.0,93.0,98.0,-1.3,-0.2,1.08,GOOD
1790978424998,1148,2030.0,-24.50168138152657,32000.0,93.0,98.0,-1.3,-0.2,1.08,GOOD
1790978424998,1149,2025.0,-34.76798905007255,32000.0,93.0,98.0,-1.3,-0.2,1.08,GOOD
1790978424998,1150,2035.0,-28.97718355218905,32000.0,93.0,98.0,-1.3,-0.2,1.08,GOOD
1790978425305,1151,2043.0,-21.680878395104475,57.0,93.0,98.0,-1.4,-0.3,1.08,GOOD
1790978425305,1152,2064.0,-13.755008073323818,55.0,93.0,98.0,-1.4,-0.3,1.08,GOOD
1790978425305,1153,2069.0,1.159501592106511,55.0,93.0,98.0,-1.4,-0.3,1.08,GOOD
1790978425305,1154,2057.0,19.819848470992554,50.0,93.0,98.0,-1.4,-0.3,1.08,GOOD
1790978425305,1155,2059.0,29.751483444441817,49.0,93.0,98.0,-1.4,-0.3,1.08,GOOD
1790978425305,1156,2083.0,26.92260200256372,46.0,93.0,98.0,-1.4,-0.3,1.08,GOOD
1790978425305,1157,1997.0,19.114330027268068,43.0,93.0,98.0,-1.4,-0.3,1.08,GOOD
1790978425305,1158,2110.0,13.906149055090163,40.0,93.0,98.0,-1.4,-0.3,1.08,GOOD
1790978425305,1159,2081.0,16.804453815829163,38.0,93.0,98.0,-1.4,-0.3,1.08,GOOD
1790978425305,1160,2106.0,27.439012629572513,32.0,93.0,98.0,-1.4,-0.3,1.08,GOOD
1790978425305,1161,2108.0,39.09000213644204,27.0,93.0,98.0,-1.4,-0.3,1.08,GOOD
1790978425305,1162,2126.0,50.79314691875865,24.0,93.0,98.0,-1.4,-0.3,1.08,GOOD
1790978425305,1163,2110.0,64.8584162785381,18.0,93.0,98.0,-1.4,-0.3,1.08,GOOD
1790978425305,1164,2128.0,76.9337208372122,12.0,93.0,98.0,-1.4,-0.3,1.08,GOOD
1790978425305,1165,2151.0,81.79511417637866,7.0,93.0,98.0,-1.4,-0.3,1.08,GOOD
1790978425305,1166,2149.0,82.35618192224075,9.0,93.0,98.0,-1.4,-0.3,1.08,GOOD
1790978425305,1167,2130.0,84.65594548826353,5.0,93.0,98.0,-1.4,-0.3,1.08,GOOD
1790978425305,1168,2103.0,87.99162479020393,0.0,93.0,98.0,-1.4,-0.3,1.08,GOOD
1790978425305,1169,2378.0,96.26680357464369,-5.0,93.0,98.0,-1.4,-0.3,1.08,GOOD
1790978425305,1170,2309.0,127.0447023133751,-6.0,93.0,98.0,-1.4,-0.3,1.08,GOOD
1790978425305,1171,2291.0,179.37803827581763,-7.0,93.0,98.0,-1.4,-0.3,1.08,GOOD
1790978425305,1172,2289.0,225.87579358474426,-8.0,93.0,98.0,-1.4,-0.3,1.08,GOOD
1790978425305,1173,2310.0,250.64228116682006,-10.0,93.0,98.0,-1.4,-0.3,1.08,GOOD
1790978425305,1174,2283.0,255.0454714038044,-11.0,93.0,98.0,-1.4,-0.3,1.08,GOOD
1790978425305,1175,2260.0,240.06096898552843,-12.0,93.0,98.0,-1.4,-0.3,1.08,GOOD
1790978425306,1176,2239.0,209.70681998128575,32000.0,93.0,98.0,-1.4,-0.3,1.08,GOOD
1790978425306,1177,2198.0,176.76679359479073,32000.0,93.0,98.0,-1.4,-0.3,1.08,GOOD
1790978425306,1178,2171.0,150.68259738701914,32000.0,93.0,98.0,-1.4,-0.3,1.08,GOOD
1790978425306,1179,2121.0,126.37574670168549,32000.0,93.0,98.0,-1.4,-0.3,1.08,GOOD
1790978425306,1180,2054.0,90.79322614810417,32000.0,93.0,98.0,-1.4,-0.3,1.08,GOOD
1790978425306,1181,2051.0,40.541474661300654,32000.0,93.0,98.0,-1.4,-0.3,1.08,GOOD
1790978425306,1182,2004.0,-10.626577706465742,32000.0,93.0,98.0,-1.4,-0.3,1.08,GOOD
1790978425306,1183,2037.0,-46.6408311204934,32000.0,93.0,98.0,-1.4,-0.3,1.08,GOOD
1790978425306,1184,2038.0,-63.216785676880484,32000.0,93.0,98.0,-1.4,-0.3,1.08,GOOD
1790978425306,1185,2003.0,-67.71127564872825,32000.0,93.0,98.0,-1.4,-0.3,1.08,GOOD
1790978425306,1186,1987.0,-71.42339698653849,32000.0,93.0,98.0,-1.4,-0.3,1.08,GOOD
1790978425306,1187,1966.0,-79.07744446428072,32000.0,93.0,98.0,-1.4,-0.3,1.08,GOOD
1790978425306,1188,1979.0,-88.30297784079329,32000.0,93.0,98.0,-1.4,-0.3,1.08,GOOD
1790978425306,1189,1987.0,-96.70833874682396,32000.0,93.0,98.0,-1.4,-0.3,1.08,GOOD
1790978425306,1190,1972.0,-104.00340248449086,32000.0,93.0,98.0,-1.4,-0.3,1.08,GOOD
1790978425306,1191,1963.0,-109.80503336232513,32000.0,93.0,98.0,-1.4,-0.3,1.08,GOOD
1790978425306,1192,1900.0,-114.31967077139376,32000.0,93.0,98.0,-1.4,-0.3,1.08,GOOD
1790978425306,1193,1905.0,-121.97066028250478,32000.0,93.0,98.0,-1.4,-0.3,1.08,GOOD
1790978425306,1194,1923.0,-136.15922136529343,32000.0,93.0,98.0,-1.4,-0.3,1.08,GOOD
1790978425306,1195,1899.0,-153.11944004383727,32000.0,93.0,98.0,-1.4,-0.3,1.08,GOOD
1790978425306,1196,1878.0,-167.3916465797572,32000.0,93.0,98.0,-1.4,-0.3,1.08,GOOD
1790978425306,1197,1877.0,-175.827941162476,32000.0,93.0,98.0,-1.4,-0.3,1.08,GOOD
1790978425306,1198,1885.0,-177.23227926470037,32000.0,93.0,98.0,-1.4,-0.3,1.08,GOOD
1790978425306,1199,1873.0,-175.09479019769338,32000.0,93.0,98.0,-1.4,-0.3,1.08,GOOD
1790978425306,1200,1853.0,-176.61987235751192,32000.0,93.0,98.0,-1.4,-0.3,1.08,GOOD
1790978425306,1201,1860.0,-183.88614230465072,32000.0,93.0,98.0,-1.4,-0.3,1.08,GOOD
1790978425306,1202,1876.0,-189.31776481529442,32000.0,93.0,98.0,-1.4,-0.3,1.08,GOOD
1790978425306,1203,1919.0,-183.75803454884357,32000.0,93.0,98.0,-1.4,-0.3,1.08,GOOD
1790978425306,1204,1850.0,-169.2484393185994,32000.0,93.0,98.0,-1.4,-0.3,1.08,GOOD
1790978425306,1205,1800.0,-161.8313237974486,32000.0,93.0,98.0,-1.4,-0.3,1.08,GOOD
1790978425306,1206,1805.0,-173.45543979872735,32000.0,93.0,98.0,-1.4,-0.3,1.08,GOOD
1790978425306,1207,1835.0,-194.95271841864582,32000.0,93.0,98.0,-1.4,-0.3,1.08,GOOD
1790978425306,1208,1888.0,-206.77296549578395,32000.0,93.0,98.0,-1.4,-0.3,1.08,GOOD
1790978425306,1209,1920.0,-197.7172148344764,32000.0,93.0,98.0,-1.4,-0.3,1.08,GOOD
1790978425306,1210,1897.0,-170.52827296572212,32000.0,93.0,98.0,-1.4,-0.3,1.08,GOOD
1790978425306,1211,1933.0,-136.18394087084187,32000.0,93.0,98.0,-1.4,-0.3,1.08,GOOD
1790978425306,1212,1991.0,-101.92935853555399,32000.0,93.0,98.0,-1.4,-0.3,1.08,GOOD
1790978425306,1213,2024.0,-68.3926126047692,32000.0,93.0,98.0,-1.4,-0.3,1.08,GOOD
1790978425306,1214,2039.0,-37.04419499636624,32000.0,93.0,98.0,-1.4,-0.3,1.08,GOOD
1790978425306,1215,2015.0,-11.286749391373764,32000.0,93.0,98.0,-1.4,-0.3,1.08,GOOD
1790978425306,1216,1926.0,3.5997262605255242,32000.0,93.0,98.0,-1.4,-0.3,1.08,GOOD
1790978425306,1217,1850.0,-3.7550453592395208,32000.0,93.0,98.0,-1.4,-0.3,1.08,GOOD
1790978425306,1218,1817.0,-43.17292279272857,32000.0,93.0,98.0,-1.4,-0.3,1.08,GOOD
1790978425306,1219,1835.0,-106.01512555970686,32000.0,93.0,98.0,-1.4,-0.3,1.08,GOOD
1790978425306,1220,2057.0,-155.8805612020111,32000.0,93.0,98.0,-1.4,-0.3,1.08,GOOD
1790978425306,1221,2015.0,-149.74552067525488,32000.0,93.0,98.0,-1.4,-0.3,1.08,GOOD
1790978425306,1222,2011.0,-87.11613638887033,32000.0,93.0,98.0,-1.4,-0.3,1.08,GOOD
1790978425306,1223,2019.0,-12.754940325584405,32000.0,93.0,98.0,-1.4,-0.3,1.08,GOOD
1790978425306,1224,1925.0,30.663067196446296,32000.0,93.0,98.0,-1.4,-0.3,1.08,GOOD
1790978425306,1225,1823.0,22.494351837460425,32000.0,93.0,98.0,-1.4,-0.3,1.08,GOOD
1790978426000,1226,1806.0,-34.6484650534784,-5.0,92.3,98.0,-1.5,-0.3,1.08,GOOD
1790978426000,1227,1864.0,-109.36042534911097,-6.0,92.3,98.0,-1.5,-0.3,1.08,GOOD
1790978426000,1228,1967.0,-156.52934426527108,-6.0,92.3,98.0,-1.5,-0.3,1.08,GOOD
1790978426000,1229,2047.0,-147.48140755333057,-10.0,92.3,98.0,-1.5,-0.3,1.08,GOOD
1790978426000,1230,1983.0,-89.96901099142505,-11.0,92.3,98.0,-1.5,-0.3,1.08,GOOD
1790978426000,1231,1982.0,-21.82664657721694,-10.0,92.3,98.0,-1.5,-0.3,1.08,GOOD
1790978426000,1232,1942.0,20.655533382877927,-9.0,92.3,98.0,-1.5,-0.3,1.08,GOOD
1790978426000,1233,2104.0,31.23567763970978,-12.0,92.3,98.0,-1.5,-0.3,1.08,GOOD
1790978426000,1234,2101.0,32.88208001758095,-16.0,92.3,98.0,-1.5,-0.3,1.08,GOOD
1790978426000,1235,2080.0,46.27450839127357,-16.0,92.3,98.0,-1.5,-0.3,1.08,GOOD
1790978426000,1236,1984.0,66.11667050639097,-16.0,92.3,98.0,-1.5,-0.3,1.08,GOOD
1790978426000,1237,2095.0,78.25858347190243,-16.0,92.3,98.0,-1.5,-0.3,1.08,GOOD
1790978426000,1238,2128.0,84.20331031348604,-18.0,92.3,98.0,-1.5,-0.3,1.08,GOOD
1790978426000,1239,2140.0,92.59643744652067,-12.0,92.3,98.0,-1.5,-0.3,1.08,GOOD
1790978426000,1240,2097.0,102.73669677520469,-15.0,92.3,98.0,-1.5,-0.3,1.08,GOOD
1790978426000,1241,2061.0,109.74578928447056,-15.0,92.3,98.0,-1.5,-0.3,1.08,GOOD
1790978426000,1242,2035.0,110.13975330616739,-15.0,92.3,98.0,-1.5,-0.3,1.08,GOOD
1790978426000,1243,2039.0,98.74753570607885,-17.0,92.3,98.0,-1.5,-0.3,1.08,GOOD
1790978426000,1244,2047.0,73.21842351796072,-16.0,92.3,98.0,-1.5,-0.3,1.08,GOOD
1790978426000,1245,2057.0,43.580783507211315,-15.0,92.3,98.0,-1.5,-0.3,1.08,GOOD
1790978426000,1246,2036.0,27.937284306103667,-13.0,92.3,98.0,-1.5,-0.3,1.08,GOOD
1790978426000,1247,1985.0,31.465644370243083,-11.0,92.3,98.0,-1.5,-0.3,1.08,GOOD
1790978426000,1248,2046.0,39.63132315461628,-14.0,92.3,98.0,-1.5,-0.3,1.08,GOOD
1790978426000,1249,2012.0,37.75495364525132,-10.0,92.3,98.0,-1.5,-0.3,1.08,GOOD
1790978426000,1250,2016.0,24.857070682424457,-10.0,92.3,98.0,-1.5,-0.3,1.08,GOOD
1790978426001,1251,2014.0,11.738181064773098,32000.0,92.3,98.0,-1.5,-0.3,1.08,GOOD
1790978426001,1252,2006.0,10.08214536686418,32000.0,92.3,98.0,-1.5,-0.3,1.08,GOOD
1790978426001,1253,2062.0,19.529445926194853,32000.0,92.3,98.0,-1.5,-0.3,1.08,GOOD
1790978426001,1254,2016.0,29.481655593273302,32000.0,92.3,98.0,-1.5,-0.3,1.08,GOOD
1790978426001,1255,2013.0,30.273086539208034,32000.0,92.3,98.0,-1.5,-0.3,1.08,GOOD
1790978426001,1256,1987.0,22.474053746697564,32000.0,92.3,98.0,-1.5,-0.3,1.08,GOOD
1790978426001,1257,2051.0,16.78894429106162,32000.0,92.3,98.0,-1.5,-0.3,1.08,GOOD
1790978426001,1258,2130.0,24.45612766977395,32000.0,92.3,98.0,-1.5,-0.3,1.08,GOOD
1790978426001,1259,2131.0,47.97297021778775,32000.0,92.3,98.0,-1.5,-0.3,1.08,GOOD
1790978426001,1260,2136.0,79.11126679268932,32000.0,92.3,98.0,-1.5,-0.3,1.08,GOOD
1790978426001,1261,2256.0,113.74936986280137,32000.0,92.3,98.0,-1.5,-0.3,1.08,GOOD
1790978426001,1262,2404.0,164.38129202274,32000.0,92.3,98.0,-1.5,-0.3,1.08,GOOD
1790978426001,1263,2566.0,245.1075491501631,32000.0,92.3,98.0,-1.5,-0.3,1.08,GOOD
1790978426001,1264,2764.0,357.222693176081,32000.0,92.3,98.0,-1.5,-0.3,1.08,GOOD
1790978426001,1265,2830.0,493.58463820726297,32000.0,92.3,98.0,-1.5,-0.3,1.08,GOOD
1790978426001,1266,2227.0,611.8171336864223,32000.0,92.3,98.0,-1.5,-0.3,1.08,GOOD
1790978426001,1267,2144.0,622.7739191005022,32000.0,92.3,98.0,-1.5,-0.3,1.08,GOOD
1790978426001,1268,2114.0,486.96419448159065,32000.0,92.3,98.0,-1.5,-0.3,1.08,GOOD
1790978426001,1269,1772.0,259.9757228570443,32000.0,92.3,98.0,-1.5,-0.3,1.08,GOOD
1790978426001,1270,1773.0,12.853315783796747,32000.0,92.3,98.0,-1.5,-0.3,1.08,GOOD
1790978426001,1271,1866.0,-189.16601066226386,32000.0,92.3,98.0,-1.5,-0.3,1.08,GOOD
1790978426001,1272,1984.0,-279.4860341354623,32000.0,92.3,98.0,-1.5,-0.3,1.08,GOOD
1790978426001,1273,2050.0,-245.14096869443011,32000.0,92.3,98.0,-1.5,-0.3,1.08,GOOD
1790978426001,1274,2023.0,-145.25848633368182,32000.0,92.3,98.0,-1.5,-0.3,1.08,GOOD
1790978426001,1275,2028.0,-54.35915368240598,32000.0,92.3,98.0,-1.5,-0.3,1.08,GOOD
1790978427079,1276,2050.0,-3.7349301047110686,22.0,92.4,98.0,-1.4,-0.2,1.08,GOOD
1790978427079,1277,2024.0,16.90280070990076,22.0,92.4,98.0,-1.4,-0.2,1.08,GOOD
1790978427079,1278,2003.0,18.151790840513264,21.0,92.4,98.0,-1.4,-0.2,1.08,GOOD
1790978427079,1279,2011.0,-0.3191014194973736,23.0,92.4,98.0,-1.4,-0.2,1.08,GOOD
1790978427079,1280,2050.0,-27.617287200325578,24.0,92.4,98.0,-1.4,-0.2,1.08,GOOD
1790978427079,1281,2063.0,-38.93237054686858,24.0,92.4,98.0,-1.4,-0.2,1.08,GOOD
1790978427079,1282,2048.0,-22.815192698646626,23.0,92.4,98.0,-1.4,-0.2,1.08,GOOD
1790978427079,1283,2086.0,5.719007750966382,25.0,92.4,98.0,-1.4,-0.2,1.08,GOOD
1790978427079,1284,2062.0,25.30269613141551,26.0,92.4,98.0,-1.4,-0.2,1.08,GOOD
1790978427079,1285,2082.0,29.32824938973428,25.0,92.4,98.0,-1.4,-0.2,1.08,GOOD
1790978427079,1286,2094.0,27.795079652568614,24.0,92.4,98.0,-1.4,-0.2,1.08,GOOD
1790978427079,1287,2088.0,32.69015977623087,26.0,92.4,98.0,-1.4,-0.2,1.08,GOOD
1790978427079,1288,2069.0,41.57961201735725,28.0,92.4,98.0,-1.4,-0.2,1.08,GOOD
1790978427079,1289,2066.0,42.57714243226067,30.0,92.4,98.0,-1.4,-0.2,1.08,GOOD
1790978427079,1290,2083.0,33.321916909332245,31.0,92.4,98.0,-1.4,-0.2,1.08,GOOD
1790978427079,1291,2108.0,25.49089931991027,32.0,92.4,98.0,-1.4,-0.2,1.08,GOOD
1790978427079,1292,2040.0,27.108352445646346,32.0,92.4,98.0,-1.4,-0.2,1.08,GOOD
1790978427079,1293,2022.0,28.413083257032408,33.0,92.4,98.0,-1.4,-0.2,1.08,GOOD
1790978427079,1294,2045.0,17.628594384478014,33.0,92.4,98.0,-1.4,-0.2,1.08,GOOD
1790978427079,1295,2092.0,1.7799300933620423,33.0,92.4,98.0,-1.4,-0.2,1.08,GOOD
1790978427079,1296,2109.0,-1.95341817588782,35.0,92.4,98.0,-1.4,-0.2,1.08,GOOD
1790978427079,1297,2000.0,8.16707436020026,36.0,92.4,98.0,-1.4,-0.2,1.08,GOOD
1790978427079,1298,1998.0,13.370319248260897,39.0,92.4,98.0,-1.4,-0.2,1.08,GOOD
1790978427079,1299,2002.0,0.6934594847509744,42.0,92.4,98.0,-1.4,-0.2,1.08,GOOD
1790978427079,1300,2005.0,-22.416676597835774,45.0,92.4,98.0,-1.4,-0.2,1.08,GOOD
1790978427080,1301,1922.0,-46.737308709367,32000.0,92.4,98.0,-1.4,-0.2,1.08,GOOD
1790978427080,1302,2005.0,-69.48186562267918,32000.0,92.4,98.0,-1.4,-0.2,1.08,GOOD
1790978427080,1303,1974.0,-82.30932383255603,32000.0,92.4,98.0,-1.4,-0.2,1.08,GOOD
1790978427080,1304,1975.0,-79.26136339354636,32000.0,92.4,98.0,-1.4,-0.2,1.08,GOOD
1790978427080,1305,1966.0,-69.67623256006627,32000.0,92.4,98.0,-1.4,-0.2,1.08,GOOD
1790978427080,1306,2001.0,-64.48681422282087,32000.0,92.4,98.0,-1.4,-0.2,1.08,GOOD
1790978427080,1307,2043.0,-60.8827414529337,32000.0,92.4,98.0,-1.4,-0.2,1.08,GOOD
1790978427080,1308,1974.0,-51.29220954376527,32000.0,92.4,98.0,-1.4,-0.2,1.08,GOOD
1790978427080,1309,2014.0,-38.65383122637296,32000.0,92.4,98.0,-1.4,-0.2,1.08,GOOD
1790978427080,1310,2025.0,-29.359952886474446,32000.0,92.4,98.0,-1.4,-0.2,1.08,GOOD
1790978427080,1311,2057.0,-22.59607198174956,32000.0,92.4,98.0,-1.4,-0.2,1.08,GOOD
1790978427080,1312,2030.0,-15.916586137914091,32000.0,92.4,98.0,-1.4,-0.2,1.08,GOOD
1790978427080,1313,2046.0,-9.10452956013829,32000.0,92.4,98.0,-1.4,-0.2,1.08,GOOD
1790978427080,1314,2054.0,-0.9429837510028078,32000.0,92.4,98.0,-1.4,-0.2,1.08,GOOD
1790978427080,1315,2069.0,9.550204019240137,32000.0,92.4,98.0,-1.4,-0.2,1.08,GOOD
1790978427080,1316,2078.0,19.325489447058104,32000.0,92.4,98.0,-1.4,-0.2,1.08,GOOD
1790978427080,1317,2063.0,24.392664025757803,32000.0,92.4,98.0,-1.4,-0.2,1.08,GOOD
1790978427080,1318,2004.0,22.772602456084062,32000.0,92.4,98.0,-1.4,-0.2,1.08,GOOD
1790978427080,1319,1911.0,9.748982595610013,32000.0,92.4,98.0,-1.4,-0.2,1.08,GOOD
1790978427080,1320,1965.0,-19.193815433049465,32000.0,92.4,98.0,-1.4,-0.2,1.08,GOOD
1790978427080,1321,2051.0,-52.56646053350411,32000.0,92.4,98.0,-1.4,-0.2,1.08,GOOD
1790978427080,1322,2127.0,-64.05298395213566,32000.0,92.4,98.0,-1.4,-0.2,1.08,GOOD
1790978427080,1323,2166.0,-35.90076368147344,32000.0,92.4,98.0,-1.4,-0.2,1.08,GOOD
1790978427080,1324,2179.0,26.308337537610605,32000.0,92.4,98.0,-1.4,-0.2,1.08,GOOD
1790978427080,1325,2186.0,97.57339778499386,32000.0,92.4,98.0,-1.4,-0.2,1.08,GOOD
1790978427080,1326,2181.0,148.3879656154971,32000.0,92.4,98.0,-1.4,-0.2,1.08,GOOD
1790978427080,1327,2172.0,162.66004812658844,32000.0,92.4,98.0,-1.4,-0.2,1.08,GOOD
1790978427080,1328,2199.0,148.77961325483946,32000.0,92.4,98.0,-1.4,-0.2,1.08,GOOD
1790978427080,1329,2133.0,129.63724440722115,32000.0,92.4,98.0,-1.4,-0.2,1.08,GOOD
1790978427080,1330,2220.0,120.54867808325041,32000.0,92.4,98.0,-1.4,-0.2,1.08,GOOD
1790978427080,1331,2213.0,123.96616314429697,32000.0,92.4,98.0,-1.4,-0.2,1.08,GOOD
1790978427080,1332,2265.0,135.6299132787475,32000.0,92.4,98.0,-1.4,-0.2,1.08,GOOD
1790978427080,1333,2348.0,154.7513996595771,32000.0,92.4,98.0,-1.4,-0.2,1.08,GOOD
1790978427080,1334,2352.0,188.81909864696667,32000.0,92.4,98.0,-1.4,-0.2,1.08,GOOD
1790978427080,1335,2367.0,236.37443475034877,32000.0,92.4,98.0,-1.4,-0.2,1.08,GOOD
1790978427080,1336,2363.0,278.8879158396434,32000.0,92.4,98.0,-1.4,-0.2,1.08,GOOD
1790978427080,1337,2361.0,298.3655044279129,32000.0,92.4,98.0,-1.4,-0.2,1.08,GOOD
1790978427080,1338,2349.0,292.96512233165777,32000.0,92.4,98.0,-1.4,-0.2,1.08,GOOD
1790978427080,1339,2362.0,276.22529446226645,32000.0,92.4,98.0,-1.4,-0.2,1.08,GOOD
1790978427080,1340,2306.0,261.54961841369027,32000.0,92.4,98.0,-1.4,-0.2,1.08,GOOD
1790978427080,1341,2312.0,248.3938385585992,32000.0,92.4,98.0,-1.4,-0.2,1.08,GOOD
1790978427080,1342,2259.0,228.33705697222675,32000.0,92.4,98.0,-1.4,-0.2,1.08,GOOD
1790978427080,1343,2222.0,197.38047343960628,32000.0,92.4,98.0,-1.4,-0.2,1.08,GOOD
1790978427080,1344,2180.0,158.60970979835201,32000.0,92.4,98.0,-1.4,-0.2,1.08,GOOD
1790978427080,1345,2112.0,116.85637167470003,32000.0,92.4,98.0,-1.4,-0.2,1.08,GOOD
1790978427080,1346,2151.0,74.73694448257929,32000.0,92.4,98.0,-1.4,-0.2,1.08,GOOD
1790978427080,1347,2104.0,36.42453043285637,32000.0,92.4,98.0,-1.4,-0.2,1.08,GOOD
1790978427080,1348,2004.0,2.5797222251219765,32000.0,92.4,98.0,-1.4,-0.2,1.08,GOOD
1790978427080,1349,2003.0,-33.085180700174135,32000.0,92.4,98.0,-1.4,-0.2,1.08,GOOD
1790978427080,1350,2003.0,-69.44047480999649,32000.0,92.4,98.0,-1.4,-0.2,1.08,GOOD
1790978427241,1351,2005.0,-97.555764606561,32000.0,92.4,98.0,-1.5,-0.2,1.08,GOOD
1790978427241,1352,1982.0,-115.41180771580089,32000.0,92.4,98.0,-1.5,-0.2,1.08,GOOD
1790978427241,1353,1962.0,-127.70282820647246,32000.0,92.4,98.0,-1.5,-0.2,1.08,GOOD
1790978427241,1354,1959.0,-136.3896387392051,32000.0,92.4,98.0,-1.5,-0.2,1.08,GOOD
1790978427241,1355,1931.0,-141.31834217750685,32000.0,92.4,98.0,-1.5,-0.2,1.08,GOOD
1790978427241,1356,1944.0,-146.43827173972414,32000.0,92.4,98.0,-1.5,-0.2,1.08,GOOD
1790978427241,1357,1908.0,-157.01146731042707,32000.0,92.4,98.0,-1.5,-0.2,1.08,GOOD
1790978427241,1358,1863.0,-174.4216311344053,32000.0,92.4,98.0,-1.5,-0.2,1.08,GOOD
1790978427241,1359,1889.0,-194.333087041495,32000.0,92.4,98.0,-1.5,-0.2,1.08,GOOD
1790978427241,1360,1865.0,-208.5153179503318,32000.0,92.4,98.0,-1.5,-0.2,1.08,GOOD
1790978427241,1361,1702.0,-221.65222904967837,32000.0,92.4,98.0,-1.5,-0.2,1.08,GOOD
1790978427241,1362,1645.0,-256.16913270473674,32000.0,92.4,98.0,-1.5,-0.2,1.08,GOOD
1790978427241,1363,1704.0,-316.70389348008416,32000.0,92.4,98.0,-1.5,-0.2,1.08,GOOD
1790978427241,1364,1740.0,-371.44513153585,32000.0,92.4,98.0,-1.5,-0.2,1.08,GOOD
1790978427241,1365,1829.0,-386.2386844296192,32000.0,92.4,98.0,-1.5,-0.2,1.08,GOOD
1790978427241,1366,1998.0,-348.73394422962986,32000.0,92.4,98.0,-1.5,-0.2,1.08,GOOD
1790978427241,1367,1977.0,-265.17357379258505,32000.0,92.4,98.0,-1.5,-0.2,1.08,GOOD
1790978427241,1368,1980.0,-163.941555433541,32000.0,92.4,98.0,-1.5,-0.2,1.08,GOOD
1790978427241,1369,1984.0,-83.33613285679604,32000.0,92.4,98.0,-1.5,-0.2,1.08,GOOD
1790978427241,1370,1977.0,-43.743623609271474,32000.0,92.4,98.0,-1.5,-0.2,1.08,GOOD
1790978427241,1371,1926.0,-44.105918069042914,32000.0,92.4,98.0,-1.5,-0.2,1.08,GOOD
1790978427241,1372,1871.0,-73.67094002216629,32000.0,92.4,98.0,-1.5,-0.2,1.08,GOOD
1790978427241,1373,1886.0,-115.39740924979796,32000.0,92.4,98.0,-1.5,-0.2,1.08,GOOD
1790978427241,1374,1977.0,-145.4884798663328,32000.0,92.4,98.0,-1.5,-0.2,1.08,GOOD
1790978427241,1375,1924.0,-147.83946092534842,32000.0,92.4,98.0,-1.5,-0.2,1.08,GOOD
1790978427242,1376,1983.0,-129.56990738062066,32000.0,92.4,98.0,-1.5,-0.2,1.08,GOOD
1790978427242,1377,1992.0,-104.7124230703897,32000.0,92.4,98.0,-1.5,-0.2,1.08,GOOD
1790978427242,1378,1967.0,-78.46211805004859,32000.0,92.4,98.0,-1.5,-0.2,1.08,GOOD
1790978427242,1379,1987.0,-56.46290084731669,32000.0,92.4,98.0,-1.5,-0.2,1.08,GOOD
1790978427242,1380,1977.0,-45.887227180067,32000.0,92.4,98.0,-1.5,-0.2,1.08,GOOD
1790978427242,1381,1960.0,-48.578157610727956,32000.0,92.4,98.0,-1.5,-0.2,1.08,GOOD
1790978427242,1382,1984.0,-58.8033535214751,32000.0,92.4,98.0,-1.5,-0.2,1.08,GOOD
1790978427242,1383,1990.0,-64.5722721119524,32000.0,92.4,98.0,-1.5,-0.2,1.08,GOOD
1790978427242,1384,2000.0,-58.59659899870752,32000.0,92.4,98.0,-1.5,-0.2,1.08,GOOD
1790978427242,1385,1987.0,-46.49638449748155,32000.0,92.4,98.0,-1.5,-0.2,1.08,GOOD
1790978427242,1386,1972.0,-39.31891447536063,32000.0,92.4,98.0,-1.5,-0.2,1.08,GOOD
1790978427242,1387,1985.0,-40.730997432115494,32000.0,92.4,98.0,-1.5,-0.2,1.08,GOOD
1790978427242,1388,2013.0,-43.342481669342824,32000.0,92.4,98.0,-1.5,-0.2,1.08,GOOD
1790978427242,1389,2020.0,-38.58471470269593,32000.0,92.4,98.0,-1.5,-0.2,1.08,GOOD
1790978427242,1390,2004.0,-27.953814566257865,32000.0,92.4,98.0,-1.5,-0.2,1.08,GOOD
1790978427242,1391,1990.0,-20.206782322031415,32000.0,92.4,98.0,-1.5,-0.2,1.08,GOOD
1790978427242,1392,1998.0,-19.458007042259073,32000.0,92.4,98.0,-1.5,-0.2,1.08,GOOD
1790978427242,1393,2003.0,-21.738315155326404,32000.0,92.4,98.0,-1.5,-0.2,1.08,GOOD
1790978427242,1394,2011.0,-22.64757771994544,32000.0,92.4,98.0,-1.5,-0.2,1.08,GOOD
1790978427242,1395,2011.0,-21.997555124593397,32000.0,92.4,98.0,-1.5,-0.2,1.08,GOOD
1790978427242,1396,2011.0,-20.44591824812005,32000.0,92.4,98.0,-1.5,-0.2,1.08,GOOD
1790978427242,1397,2013.0,-16.89945261552826,32000.0,92.4,98.0,-1.5,-0.2,1.08,GOOD
1790978427242,1398,1822.0,-18.642940819158774,32000.0,92.4,98.0,-1.5,-0.2,1.08,GOOD
1790978427242,1399,1811.0,-46.02015637186911,32000.0,92.4,98.0,-1.5,-0.2,1.08,GOOD
1790978427242,1400,1812.0,-104.15874613911936,32000.0,92.4,98.0,-1.5,-0.2,1.08,GOOD
1790978427522,1401,1798.0,-168.38935221945562,32000.0,92.4,98.0,-1.4,-0.2,1.08,GOOD
1790978427522,1402,1772.0,-213.56164150653711,32000.0,92.4,98.0,-1.4,-0.2,1.08,GOOD
1790978427522,1403,1769.0,-233.98420950894075,32000.0,92.4,98.0,-1.4,-0.2,1.08,GOOD
1790978427522,1404,1702.0,-238.7289080430943,32000.0,92.4,98.0,-1.4,-0.2,1.08,GOOD
1790978427522,1405,1765.0,-240.9810871545417,32000.0,92.4,98.0,-1.4,-0.2,1.08,GOOD
1790978427522,1406,1870.0,-240.12167032873407,32000.0,92.4,98.0,-1.4,-0.2,1.08,GOOD
1790978427522,1407,1976.0,-217.49372472612092,32000.0,92.4,98.0,-1.4,-0.2,1.08,GOOD
1790978427522,1408,2078.0,-157.0329203524673,32000.0,92.4,98.0,-1.4,-0.2,1.08,GOOD
1790978427522,1409,2087.0,-63.95677620646474,32000.0,92.4,98.0,-1.4,-0.2,1.08,GOOD
1790978427522,1410,2050.0,32.37853507711002,32000.0,92.4,98.0,-1.4,-0.2,1.08,GOOD
1790978427522,1411,2017.0,94.51939807155836,32000.0,92.4,98.0,-1.4,-0.2,1.08,GOOD
1790978427522,1412,1974.0,103.1090567566686,32000.0,92.4,98.0,-1.4,-0.2,1.08,GOOD
1790978427522,1413,2013.0,69.70126933995292,32000.0,92.4,98.0,-1.4,-0.2,1.08,GOOD
1790978427522,1414,2041.0,28.40590583628435,32000.0,92.4,98.0,-1.4,-0.2,1.08,GOOD
1790978427522,1415,2054.0,10.445891388508942,32000.0,92.4,98.0,-1.4,-0.2,1.08,GOOD
1790978427522,1416,2041.0,21.33577932062512,32000.0,92.4,98.0,-1.4,-0.2,1.08,GOOD
1790978427522,1417,2035.0,43.92786221911531,32000.0,92.4,98.0,-1.4,-0.2,1.08,GOOD
1790978427522,1418,2030.0,59.0502327822104,32000.0,92.4,98.0,-1.4,-0.2,1.08,GOOD
1790978427522,1419,2051.0,60.78396079416438,32000.0,92.4,98.0,-1.4,-0.2,1.08,GOOD
1790978427522,1420,2070.0,56.90596959583752,32000.0,92.4,98.0,-1.4,-0.2,1.08,GOOD
1790978427522,1421,2048.0,56.89853925883416,32000.0,92.4,98.0,-1.4,-0.2,1.08,GOOD
1790978427522,1422,2044.0,60.9062927627617,32000.0,92.4,98.0,-1.4,-0.2,1.08,GOOD
1790978427522,1423,2017.0,62.17211321944741,32000.0,92.4,98.0,-1.4,-0.2,1.08,GOOD
1790978427522,1424,2009.0,55.35990006121501,32000.0,92.4,98.0,-1.4,-0.2,1.08,GOOD
1790978427522,1425,2010.0,41.201261447013444,32000.0,92.4,98.0,-1.4,-0.2,1.08,GOOD
1790978427837,1426,1999.0,25.711548664937492,-8.0,91.7,98.0,-1.5,-0.2,1.07,GOOD
1790978427837,1427,2044.0,16.12374599246901,-7.0,91.7,98.0,-1.5,-0.2,1.07,GOOD
1790978427837,1428,2057.0,18.413838176015503,-8.0,91.7,98.0,-1.5,-0.2,1.07,GOOD
1790978427837,1429,2082.0,33.57219609810022,-8.0,91.7,98.0,-1.5,-0.2,1.07,GOOD
1790978427837,1430,2083.0,55.759953068772234,-10.0,91.7,98.0,-1.5,-0.2,1.07,GOOD
1790978427837,1431,2066.0,76.06494468428369,-11.0,91.7,98.0,-1.5,-0.2,1.07,GOOD
1790978427837,1432,2071.0,87.23198463155016,-8.0,91.7,98.0,-1.5,-0.2,1.07,GOOD
1790978427837,1433,2099.0,88.98432563383251,-10.0,91.7,98.0,-1.5,-0.2,1.07,GOOD
1790978427837,1434,2015.0,84.48515457606723,-10.0,91.7,98.0,-1.5,-0.2,1.07,GOOD
1790978427837,1435,2055.0,73.1279443289213,-4.0,91.7,98.0,-1.5,-0.2,1.07,GOOD
1790978427837,1436,1976.0,55.424931109440976,-4.0,91.7,98.0,-1.5,-0.2,1.07,GOOD
1790978427837,1437,1932.0,31.916661035030717,-6.0,91.7,98.0,-1.5,-0.2,1.07,GOOD
1790978427837,1438,1930.0,0.2837944712240139,-9.0,91.7,98.0,-1.5,-0.2,1.07,GOOD
1790978427837,1439,2045.0,-30.248638612635755,-10.0,91.7,98.0,-1.5,-0.2,1.07,GOOD
1790978427837,1440,2093.0,-36.55047612450302,-9.0,91.7,98.0,-1.5,-0.2,1.07,GOOD
1790978427837,1441,2094.0,-7.014271504173989,-8.0,91.7,98.0,-1.5,-0.2,1.07,GOOD
1790978427837,1442,2112.0,43.9777924331284,-8.0,91.7,98.0,-1.5,-0.2,1.07,GOOD
1790978427837,1443,2077.0,91.12133985339405,-9.0,91.7,98.0,-1.5,-0.2,1.07,GOOD
1790978427837,1444,2119.0,116.76221910179954,-12.0,91.7,98.0,-1.5,-0.2,1.07,GOOD
1790978427837,1445,2109.0,119.44776695784644,-6.0,91.7,98.0,-1.5,-0.2,1.07,GOOD
1790978427837,1446,2139.0,111.27418387102479,-7.0,91.7,98.0,-1.5,-0.2,1.07,GOOD
1790978427837,1447,2189.0,109.10031875678212,-6.0,91.7,98.0,-1.5,-0.2,1.07,GOOD
1790978427837,1448,2213.0,125.30419982057516,-7.0,91.7,98.0,-1.5,-0.2,1.07,GOOD
1790978427837,1449,2231.0,157.44313211529027,-9.0,91.7,98.0,-1.5,-0.2,1.07,GOOD
