timestamp_ms,sample_seq,ecg_raw,ecg_cleaned,ppg_dc_ir,ecg_bpm,spo2_pct,pitch_deg,roll_deg,motion_g,signal_quality
1790977280400,1,2076.0,81.69348724514725,-69.0,106.4,98.0,-1.4,-0.4,1.08,GOOD
1790977280400,2,2010.0,424.6273650212145,-76.0,106.4,98.0,-1.4,-0.4,1.08,GOOD
1790977280400,3,2157.0,1036.8415210358232,-80.0,106.4,98.0,-1.4,-0.4,1.08,GOOD
1790977280400,4,2138.0,1668.2935243044103,-84.0,106.4,98.0,-1.4,-0.4,1.08,GOOD
1790977280400,5,2177.0,2094.921049254403,-89.0,106.4,98.0,-1.4,-0.4,1.08,GOOD
1790977280400,6,2150.0,2255.9091399510817,-95.0,106.4,98.0,-1.4,-0.4,1.08,GOOD
1790977280400,7,2120.0,2193.663118580238,-97.0,106.4,98.0,-1.4,-0.4,1.08,GOOD
1790977280400,8,2063.0,2012.0389089995303,-99.0,106.4,98.0,-1.4,-0.4,1.08,GOOD
1790977280400,9,2112.0,1841.0494609234895,-104.0,106.4,98.0,-1.4,-0.4,1.08,GOOD
1790977280400,10,2224.0,1772.5277217568525,-100.0,106.4,98.0,-1.4,-0.4,1.08,GOOD
1790977280400,11,2278.0,1803.4845322947808,-102.0,106.4,98.0,-1.4,-0.4,1.08,GOOD
1790977280400,12,2254.0,1854.8864439695342,-104.0,106.4,98.0,-1.4,-0.4,1.08,GOOD
1790977280400,13,2166.0,1858.482895268751,-104.0,106.4,98.0,-1.4,-0.4,1.08,GOOD
1790977280400,14,2116.0,1814.5977992495045,-103.0,106.4,98.0,-1.4,-0.4,1.08,GOOD
1790977280400,15,2082.0,1759.631707710021,-106.0,106.4,98.0,-1.4,-0.4,1.08,GOOD
1790977280400,16,2070.0,1702.7111444737347,-105.0,106.4,98.0,-1.4,-0.4,1.08,GOOD
1790977280400,17,2091.0,1624.4986776029996,-106.0,106.4,98.0,-1.4,-0.4,1.08,GOOD
1790977280400,18,2091.0,1529.808734468584,-106.0,106.4,98.0,-1.4,-0.4,1.08,GOOD
1790977280400,19,2042.0,1459.4247132933046,-106.0,106.4,98.0,-1.4,-0.4,1.08,GOOD
1790977280400,20,2136.0,1441.8633166878024,-101.0,106.4,98.0,-1.4,-0.4,1.08,GOOD
1790977280400,21,2108.0,1457.5910923313195,-102.0,106.4,98.0,-1.4,-0.4,1.08,GOOD
1790977280400,22,2106.0,1456.6614367852405,-102.0,106.4,98.0,-1.4,-0.4,1.08,GOOD
1790977280400,23,2093.0,1414.3448084764384,-103.0,106.4,98.0,-1.4,-0.4,1.08,GOOD
1790977280400,24,2116.0,1360.1220507918238,-102.0,106.4,98.0,-1.4,-0.4,1.08,GOOD
1790977280400,25,2166.0,1335.8999032579418,-102.0,106.4,98.0,-1.4,-0.4,1.08,GOOD
1790977280403,26,2183.0,1342.0574770083756,32000.0,106.4,98.0,-1.4,-0.4,1.08,GOOD
1790977280403,27,2161.0,1341.9914607319104,32000.0,106.4,98.0,-1.4,-0.4,1.08,GOOD
1790977280403,28,2121.0,1311.417840999178,32000.0,106.4,98.0,-1.4,-0.4,1.08,GOOD
1790977280403,29,2091.0,1264.123088115771,32000.0,106.4,98.0,-1.4,-0.4,1.08,GOOD
1790977280403,30,2096.0,1224.432396478181,32000.0,106.4,98.0,-1.4,-0.4,1.08,GOOD
1790977280403,31,2062.0,1190.9840704684648,32000.0,106.4,98.0,-1.4,-0.4,1.08,GOOD
1790977280403,32,2076.0,1143.4992534599792,32000.0,106.4,98.0,-1.4,-0.4,1.08,GOOD
1790977280403,33,2180.0,1085.344713273394,32000.0,106.4,98.0,-1.4,-0.4,1.08,GOOD
1790977280403,34,2385.0,1061.0061364335838,32000.0,106.4,98.0,-1.4,-0.4,1.08,GOOD
1790977280403,35,2566.0,1114.7159260745452,32000.0,106.4,98.0,-1.4,-0.4,1.08,GOOD
1790977280403,36,2666.0,1238.4951410028184,32000.0,106.4,98.0,-1.4,-0.4,1.08,GOOD
1790977280403,37,2709.0,1376.4496974065955,32000.0,106.4,98.0,-1.4,-0.4,1.08,GOOD
1790977280403,38,2680.0,1475.7289076797153,32000.0,106.4,98.0,-1.4,-0.4,1.08,GOOD
1790977280403,39,2528.0,1512.7944630074821,32000.0,106.4,98.0,-1.4,-0.4,1.08,GOOD
1790977280403,40,2080.0,1465.1039942459001,32000.0,106.4,98.0,-1.4,-0.4,1.08,GOOD
1790977280403,41,1999.0,1302.8197858311682,32000.0,106.4,98.0,-1.4,-0.4,1.08,GOOD
1790977280403,42,1766.0,1040.267133740694,32000.0,106.4,98.0,-1.4,-0.4,1.08,GOOD
1790977280403,43,1828.0,752.6376046522342,32000.0,106.4,98.0,-1.4,-0.4,1.08,GOOD
1790977280403,44,2011.0,536.3272990217998,32000.0,106.4,98.0,-1.4,-0.4,1.08,GOOD
1790977280403,45,2140.0,460.70284145325917,32000.0,106.4,98.0,-1.4,-0.4,1.08,GOOD
1790977280403,46,2084.0,517.2250500721734,32000.0,106.4,98.0,-1.4,-0.4,1.08,GOOD
1790977280403,47,2085.0,623.304009509858,32000.0,106.4,98.0,-1.4,-0.4,1.08,GOOD
1790977280403,48,2062.0,696.5924335751324,32000.0,106.4,98.0,-1.4,-0.4,1.08,GOOD
1790977280403,49,2031.0,706.1221159024942,32000.0,106.4,98.0,-1.4,-0.4,1.08,GOOD
1790977280403,50,2076.0,664.5716561274796,32000.0,106.4,98.0,-1.4,-0.4,1.08,GOOD
1790977281483,51,2089.0,606.1140367998892,-110.0,117.9,98.0,-1.5,-0.2,1.08,GOOD
1790977281483,52,2077.0,562.9386316279363,-107.0,117.9,98.0,-1.5,-0.2,1.08,GOOD
1790977281483,53,1975.0,540.9394556756024,-105.0,117.9,98.0,-1.5,-0.2,1.08,GOOD
1790977281483,54,1974.0,519.8926492183377,-98.0,117.9,98.0,-1.5,-0.2,1.08,GOOD
1790977281483,55,2030.0,484.23842822956857,-98.0,117.9,98.0,-1.5,-0.2,1.08,GOOD
1790977281483,56,2114.0,446.2477540583521,-98.0,117.9,98.0,-1.5,-0.2,1.08,GOOD
1790977281483,57,2102.0,429.85321435889836,-95.0,117.9,98.0,-1.5,-0.2,1.08,GOOD
1790977281483,58,2068.0,439.23544233203273,-92.0,117.9,98.0,-1.5,-0.2,1.08,GOOD
1790977281483,59,2051.0,453.67495617180384,-91.0,117.9,98.0,-1.5,-0.2,1.08,GOOD
1790977281483,60,2045.0,449.5675639590984,-87.0,117.9,98.0,-1.5,-0.2,1.08,GOOD
1790977281483,61,2058.0,420.41244152523143,-81.0,117.9,98.0,-1.5,-0.2,1.08,GOOD
1790977281483,62,2075.0,380.1295268327258,-78.0,117.9,98.0,-1.5,-0.2,1.08,GOOD
1790977281483,63,2078.0,350.0308713584973,-74.0,117.9,98.0,-1.5,-0.2,1.08,GOOD
1790977281483,64,2066.0,338.5950256603867,-71.0,117.9,98.0,-1.5,-0.2,1.08,GOOD
1790977281483,65,2213.0,340.9280975100505,-67.0,117.9,98.0,-1.5,-0.2,1.08,GOOD
1790977281483,66,2186.0,353.8509328954972,-65.0,117.9,98.0,-1.5,-0.2,1.08,GOOD
1790977281483,67,2219.0,373.69492851107225,-63.0,117.9,98.0,-1.5,-0.2,1.08,GOOD
1790977281483,68,2224.0,392.99244158916,-60.0,117.9,98.0,-1.5,-0.2,1.08,GOOD
1790977281483,69,2190.0,405.0645984292822,-57.0,117.9,98.0,-1.5,-0.2,1.08,GOOD
1790977281483,70,2127.0,398.33197485936125,-55.0,117.9,98.0,-1.5,-0.2,1.08,GOOD
1790977281483,71,2123.0,362.13754216396796,-53.0,117.9,98.0,-1.5,-0.2,1.08,GOOD
1790977281483,72,2202.0,308.5276991457417,-48.0,117.9,98.0,-1.5,-0.2,1.08,GOOD
1790977281483,73,2302.0,272.75999611543807,-49.0,117.9,98.0,-1.5,-0.2,1.08,GOOD
1790977281483,74,2324.0,280.73320828476676,-49.0,117.9,98.0,-1.5,-0.2,1.08,GOOD
1790977281483,75,2187.0,316.4736680919904,-48.0,117.9,98.0,-1.5,-0.2,1.08,GOOD
1790977281484,76,2234.0,336.95997313255003,32000.0,117.9,98.0,-1.5,-0.2,1.08,GOOD
1790977281484,77,2171.0,320.5731632448899,32000.0,117.9,98.0,-1.5,-0.2,1.08,GOOD
1790977281484,78,2164.0,276.5525001704591,32000.0,117.9,98.0,-1.5,-0.2,1.08,GOOD
1790977281484,79,2250.0,224.80583951407718,32000.0,117.9,98.0,-1.5,-0.2,1.08,GOOD
1790977281484,80,2240.0,188.3886521005419,32000.0,117.9,98.0,-1.5,-0.2,1.08,GOOD
1790977281484,81,2232.0,178.6458789526259,32000.0,117.9,98.0,-1.5,-0.2,1.08,GOOD
1790977281484,82,2175.0,183.66015633528946,32000.0,117.9,98.0,-1.5,-0.2,1.08,GOOD
1790977281484,83,2093.0,177.94841678323277,32000.0,117.9,98.0,-1.5,-0.2,1.08,GOOD
1790977281484,84,2005.0,138.12421577834152,32000.0,117.9,98.0,-1.5,-0.2,1.08,GOOD
1790977281484,85,1824.0,54.08997483780285,32000.0,117.9,98.0,-1.5,-0.2,1.08,GOOD
1790977281484,86,1889.0,-61.708030123899476,32000.0,117.9,98.0,-1.5,-0.2,1.08,GOOD
1790977281484,87,1909.0,-169.66114539945931,32000.0,117.9,98.0,-1.5,-0.2,1.08,GOOD
1790977281484,88,1927.0,-231.21089326218987,32000.0,117.9,98.0,-1.5,-0.2,1.08,GOOD
1790977281484,89,1917.0,-244.30542159743013,32000.0,117.9,98.0,-1.5,-0.2,1.08,GOOD
1790977281484,90,1951.0,-231.84208602673704,32000.0,117.9,98.0,-1.5,-0.2,1.08,GOOD
1790977281484,91,2016.0,-209.34145846627854,32000.0,117.9,98.0,-1.5,-0.2,1.08,GOOD
1790977281484,92,2028.0,-179.9755040688563,32000.0,117.9,98.0,-1.5,-0.2,1.08,GOOD
1790977281484,93,1904.0,-155.7765798891312,32000.0,117.9,98.0,-1.5,-0.2,1.08,GOOD
1790977281484,94,1675.0,-169.28521718898725,32000.0,117.9,98.0,-1.5,-0.2,1.08,GOOD
1790977281484,95,1795.0,-239.77191444167119,32000.0,117.9,98.0,-1.5,-0.2,1.08,GOOD
1790977281484,96,1785.0,-334.22070442910626,32000.0,117.9,98.0,-1.5,-0.2,1.08,GOOD
1790977281484,97,1896.0,-398.1833097714589,32000.0,117.9,98.0,-1.5,-0.2,1.08,GOOD
1790977281484,98,2015.0,-403.4669657221884,32000.0,117.9,98.0,-1.5,-0.2,1.08,GOOD
1790977281484,99,2038.0,-350.769868104986,32000.0,117.9,98.0,-1.5,-0.2,1.08,GOOD
1790977281484,100,1967.0,-267.89251533304036,32000.0,117.9,98.0,-1.5,-0.2,1.08,GOOD
1790977281485,101,1898.0,-203.43322828700892,32000.0,117.9,98.0,-1.5,-0.2,1.08,GOOD
1790977281485,102,1838.0,-196.55591384812323,32000.0,117.9,98.0,-1.5,-0.2,1.08,GOOD
1790977281485,103,1869.0,-248.92958931563868,32000.0,117.9,98.0,-1.5,-0.2,1.08,GOOD
1790977281485,104,1943.0,-321.5624109267229,32000.0,117.9,98.0,-1.5,-0.2,1.08,GOOD
1790977281485,105,1933.0,-364.92468782855025,32000.0,117.9,98.0,-1.5,-0.2,1.08,GOOD
1790977281485,106,1971.0,-359.57486249381435,32000.0,117.9,98.0,-1.5,-0.2,1.08,GOOD
1790977281485,107,1972.0,-322.96041086781634,32000.0,117.9,98.0,-1.5,-0.2,1.08,GOOD
1790977281485,108,1943.0,-287.35560000519115,32000.0,117.9,98.0,-1.5,-0.2,1.08,GOOD
1790977281485,109,1897.0,-278.51043774339803,32000.0,117.9,98.0,-1.5,-0.2,1.08,GOOD
1790977281485,110,1836.0,-302.76056117616974,32000.0,117.9,98.0,-1.5,-0.2,1.08,GOOD
1790977281485,111,1776.0,-349.94058488769235,32000.0,117.9,98.0,-1.5,-0.2,1.08,GOOD
1790977281485,112,1843.0,-403.2098998348202,32000.0,117.9,98.0,-1.5,-0.2,1.08,GOOD
1790977281485,113,1855.0,-443.760389915592,32000.0,117.9,98.0,-1.5,-0.2,1.08,GOOD
1790977281485,114,1844.0,-461.1971103333852,32000.0,117.9,98.0,-1.5,-0.2,1.08,GOOD
1790977281485,115,1911.0,-456.8723718485099,32000.0,117.9,98.0,-1.5,-0.2,1.08,GOOD
1790977281485,116,1972.0,-431.26859642015376,32000.0,117.9,98.0,-1.5,-0.2,1.08,GOOD
1790977281485,117,1968.0,-387.6574266351929,32000.0,117.9,98.0,-1.5,-0.2,1.08,GOOD
1790977281485,118,1939.0,-345.7831725877503,32000.0,117.9,98.0,-1.5,-0.2,1.08,GOOD
1790977281485,119,1843.0,-331.8934111973035,32000.0,117.9,98.0,-1.5,-0.2,1.08,GOOD
1790977281485,120,1860.0,-354.7763559932274,32000.0,117.9,98.0,-1.5,-0.2,1.08,GOOD
1790977281485,121,1846.0,-397.2181195854714,32000.0,117.9,98.0,-1.5,-0.2,1.08,GOOD
1790977281485,122,1943.0,-431.8750808601208,32000.0,117.9,98.0,-1.5,-0.2,1.08,GOOD
1790977281485,123,1901.0,-442.942212917564,32000.0,117.9,98.0,-1.5,-0.2,1.08,GOOD
1790977281485,124,2005.0,-430.7641886724542,32000.0,117.9,98.0,-1.5,-0.2,1.08,GOOD
1790977281485,125,1965.0,-401.1767017705879,32000.0,117.9,98.0,-1.5,-0.2,1.08,GOOD
1790977283107,126,1903.0,-367.48206439184435,-80.0,97.7,98.0,-1.4,-0.5,1.1,GOOD
1790977283107,127,1805.0,-356.963855321299,-84.0,97.7,98.0,-1.4,-0.5,1.1,GOOD
1790977283107,128,1830.0,-388.22968771073425,-87.0,97.7,98.0,-1.4,-0.5,1.1,GOOD
1790977283107,129,1998.0,-439.8242464646114,-91.0,97.7,98.0,-1.4,-0.5,1.1,GOOD
1790977283107,130,1986.0,-463.64573317775137,-95.0,97.7,98.0,-1.4,-0.5,1.1,GOOD
1790977283107,131,1976.0,-439.5989686047591,-100.0,97.7,98.0,-1.4,-0.5,1.1,GOOD
1790977283107,132,1981.0,-391.7614326911114,-102.0,97.7,98.0,-1.4,-0.5,1.1,GOOD
1790977283107,133,2066.0,-348.87132789344946,-103.0,97.7,98.0,-1.4,-0.5,1.1,GOOD
1790977283107,134,2046.0,-320.2834058307221,-104.0,97.7,98.0,-1.4,-0.5,1.1,GOOD
1790977283107,135,2034.0,-306.99047392851173,-103.0,97.7,98.0,-1.4,-0.5,1.1,GOOD
1790977283107,136,2043.0,-307.10293967154814,-103.0,97.7,98.0,-1.4,-0.5,1.1,GOOD
1790977283107,137,2064.0,-310.49535436561143,-103.0,97.7,98.0,-1.4,-0.5,1.1,GOOD
1790977283107,138,2109.0,-306.21055346274807,-101.0,97.7,98.0,-1.4,-0.5,1.1,GOOD
1790977283107,139,2468.0,-279.56953960548515,-99.0,97.7,98.0,-1.4,-0.5,1.1,GOOD
1790977283107,140,2476.0,-206.6607951787674,-99.0,97.7,98.0,-1.4,-0.5,1.1,GOOD
1790977283107,141,2497.0,-89.68628581024433,-93.0,97.7,98.0,-1.4,-0.5,1.1,GOOD
1790977283107,142,2537.0,31.616268988515863,-92.0,97.7,98.0,-1.4,-0.5,1.1,GOOD
1790977283107,143,2563.0,121.68195493538184,-87.0,97.7,98.0,-1.4,-0.5,1.1,GOOD
1790977283107,144,2423.0,160.50948843742694,-85.0,97.7,98.0,-1.4,-0.5,1.1,GOOD
1790977283107,145,2264.0,129.86911377836958,-82.0,97.7,98.0,-1.4,-0.5,1.1,GOOD
1790977283107,146,2060.0,25.64210090026281,-82.0,97.7,98.0,-1.4,-0.5,1.1,GOOD
1790977283107,147,1957.0,-128.14061168225996,-79.0,97.7,98.0,-1.4,-0.5,1.1,GOOD
1790977283107,148,1870.0,-293.2715014638627,-76.0,97.7,98.0,-1.4,-0.5,1.1,GOOD
1790977283107,149,1780.0,-443.32078187914954,-74.0,97.7,98.0,-1.4,-0.5,1.1,GOOD
1790977283107,150,1758.0,-568.7026782126776,-69.0,97.7,98.0,-1.4,-0.5,1.1,GOOD
1790977283108,151,1691.0,-661.3497146529464,32000.0,97.7,98.0,-1.4,-0.5,1.1,GOOD
1790977283108,152,1828.0,-708.4276525249513,32000.0,97.7,98.0,-1.4,-0.5,1.1,GOOD
1790977283108,153,1997.0,-696.8096350074934,32000.0,97.7,98.0,-1.4,-0.5,1.1,GOOD
1790977283108,154,2059.0,-627.484530468893,32000.0,97.7,98.0,-1.4,-0.5,1.1,GOOD
1790977283108,155,2059.0,-529.0666052175483,32000.0,97.7,98.0,-1.4,-0.5,1.1,GOOD
1790977283108,156,2051.0,-439.14117699111165,32000.0,97.7,98.0,-1.4,-0.5,1.1,GOOD
1790977283108,157,1952.0,-381.4642885090925,32000.0,97.7,98.0,-1.4,-0.5,1.1,GOOD
1790977283108,158,1796.0,-375.2974197614594,32000.0,97.7,98.0,-1.4,-0.5,1.1,GOOD
1790977283108,159,1865.0,-431.92821084106924,32000.0,97.7,98.0,-1.4,-0.5,1.1,GOOD
1790977283108,160,1852.0,-524.4241699293286,32000.0,97.7,98.0,-1.4,-0.5,1.1,GOOD
1790977283108,161,1949.0,-595.7056015314477,32000.0,97.7,98.0,-1.4,-0.5,1.1,GOOD
1790977283108,162,2043.0,-601.3121812891368,32000.0,97.7,98.0,-1.4,-0.5,1.1,GOOD
1790977283108,163,2019.0,-540.4760518230489,32000.0,97.7,98.0,-1.4,-0.5,1.1,GOOD
1790977283108,164,1986.0,-459.6863276245178,32000.0,97.7,98.0,-1.4,-0.5,1.1,GOOD
1790977283108,165,2111.0,-406.8245976201123,32000.0,97.7,98.0,-1.4,-0.5,1.1,GOOD
1790977283108,166,2144.0,-381.8052692067812,32000.0,97.7,98.0,-1.4,-0.5,1.1,GOOD
1790977283108,167,2159.0,-357.1413732920105,32000.0,97.7,98.0,-1.4,-0.5,1.1,GOOD
1790977283108,168,2129.0,-324.6324487010526,32000.0,97.7,98.0,-1.4,-0.5,1.1,GOOD
1790977283108,169,2126.0,-298.8643468775229,32000.0,97.7,98.0,-1.4,-0.5,1.1,GOOD
1790977283108,170,2142.0,-292.03503270818067,32000.0,97.7,98.0,-1.4,-0.5,1.1,GOOD
1790977283108,171,2150.0,-299.72126132219864,32000.0,97.7,98.0,-1.4,-0.5,1.1,GOOD
1790977283108,172,2133.0,-309.5407256242785,32000.0,97.7,98.0,-1.4,-0.5,1.1,GOOD
1790977283108,173,2127.0,-315.1017657860548,32000.0,97.7,98.0,-1.4,-0.5,1.1,GOOD
1790977283108,174,2103.0,-318.55271955021306,32000.0,97.7,98.0,-1.4,-0.5,1.1,GOOD
1790977283108,175,2089.0,-325.91256304454623,32000.0,97.7,98.0,-1.4,-0.5,1.1,GOOD
1790977283249,176,2127.0,-338.96708875934064,32000.0,97.7,98.0,-1.3,0.1,1.09,GOOD
1790977283249,177,2156.0,-349.2004419569073,32000.0,97.7,98.0,-1.3,0.1,1.09,GOOD
1790977283249,178,2143.0,-346.61679605198026,32000.0,97.7,98.0,-1.3,0.1,1.09,GOOD
1790977283249,179,2067.0,-335.9441356740519,32000.0,97.7,98.0,-1.3,0.1,1.09,GOOD
1790977283249,180,1908.0,-340.5126685447388,32000.0,97.7,98.0,-1.3,0.1,1.09,GOOD
1790977283249,181,1990.0,-379.5801707231207,32000.0,97.7,98.0,-1.3,0.1,1.09,GOOD
1790977283249,182,2327.0,-425.4371408737202,32000.0,97.7,98.0,-1.3,0.1,1.09,GOOD
1790977283249,183,2365.0,-413.7946026301544,32000.0,97.7,98.0,-1.3,0.1,1.09,GOOD
1790977283249,184,2460.0,-320.1803498151744,32000.0,97.7,98.0,-1.3,0.1,1.09,GOOD
1790977283249,185,2433.0,-183.78323652448844,32000.0,97.7,98.0,-1.3,0.1,1.09,GOOD
1790977283249,186,2317.0,-67.1498255340382,32000.0,97.7,98.0,-1.3,0.1,1.09,GOOD
1790977283249,187,2207.0,-25.60413374130232,32000.0,97.7,98.0,-1.3,0.1,1.09,GOOD
1790977283249,188,2168.0,-78.55295347621234,32000.0,97.7,98.0,-1.3,0.1,1.09,GOOD
1790977283249,189,2203.0,-188.89760454275566,32000.0,97.7,98.0,-1.3,0.1,1.09,GOOD
1790977283249,190,2206.0,-288.2930256800141,32000.0,97.7,98.0,-1.3,0.1,1.09,GOOD
1790977283249,191,2032.0,-338.58237547110303,32000.0,97.7,98.0,-1.3,0.1,1.09,GOOD
1790977283249,192,1986.0,-362.02422277916276,32000.0,97.7,98.0,-1.3,0.1,1.09,GOOD
1790977283249,193,1999.0,-396.56041364202974,32000.0,97.7,98.0,-1.3,0.1,1.09,GOOD
1790977283249,194,1976.0,-446.9045550480695,32000.0,97.7,98.0,-1.3,0.1,1.09,GOOD
1790977283249,195,2041.0,-491.2924614887302,32000.0,97.7,98.0,-1.3,0.1,1.09,GOOD
1790977283249,196,2159.0,-502.230255542115,32000.0,97.7,98.0,-1.3,0.1,1.09,GOOD
1790977283249,197,2179.0,-464.3045135174701,32000.0,97.7,98.0,-1.3,0.1,1.09,GOOD
1790977283249,198,2208.0,-393.0982705901363,32000.0,97.7,98.0,-1.3,0.1,1.09,GOOD
1790977283249,199,2177.0,-324.92827627273357,32000.0,97.7,98.0,-1.3,0.1,1.09,GOOD
1790977283249,200,2180.0,-286.1245034774757,32000.0,97.7,98.0,-1.3,0.1,1.09,GOOD
1790977283250,201,2268.0,-275.0412432861748,32000.0,97.7,98.0,-1.3,0.1,1.09,GOOD
1790977283250,202,2271.0,-269.9648107996865,32000.0,97.7,98.0,-1.3,0.1,1.09,GOOD
1790977283250,203,2196.0,-259.90378739939365,32000.0,97.7,98.0,-1.3,0.1,1.09,GOOD
1790977283250,204,2083.0,-259.99017707361895,32000.0,97.7,98.0,-1.3,0.1,1.09,GOOD
1790977283250,205,2009.0,-290.3442760072385,32000.0,97.7,98.0,-1.3,0.1,1.09,GOOD
1790977283250,206,1999.0,-351.2395757482427,32000.0,97.7,98.0,-1.3,0.1,1.09,GOOD
1790977283250,207,2131.0,-417.29454418352503,32000.0,97.7,98.0,-1.3,0.1,1.09,GOOD
1790977283250,208,2059.0,-455.8577607663723,32000.0,97.7,98.0,-1.3,0.1,1.09,GOOD
1790977283250,209,2039.0,-459.0382763734433,32000.0,97.7,98.0,-1.3,0.1,1.09,GOOD
1790977283250,210,1935.0,-447.9122060574165,32000.0,97.7,98.0,-1.3,0.1,1.09,GOOD
1790977283250,211,1938.0,-448.4049992918748,32000.0,97.7,98.0,-1.3,0.1,1.09,GOOD
1790977283250,212,2020.0,-468.62868456647806,32000.0,97.7,98.0,-1.3,0.1,1.09,GOOD
1790977283250,213,1990.0,-494.39209008758763,32000.0,97.7,98.0,-1.3,0.1,1.09,GOOD
1790977283250,214,1925.0,-510.94588560542064,32000.0,97.7,98.0,-1.3,0.1,1.09,GOOD
1790977283250,215,1945.0,-515.9986496466945,32000.0,97.7,98.0,-1.3,0.1,1.09,GOOD
1790977283250,216,1951.0,-511.1704710550347,32000.0,97.7,98.0,-1.3,0.1,1.09,GOOD
1790977283250,217,1907.0,-504.8452609202254,32000.0,97.7,98.0,-1.3,0.1,1.09,GOOD
1790977283250,218,1914.0,-511.84238331349684,32000.0,97.7,98.0,-1.3,0.1,1.09,GOOD
1790977283250,219,1982.0,-528.8209780296625,32000.0,97.7,98.0,-1.3,0.1,1.09,GOOD
1790977283250,220,2057.0,-527.2850303748395,32000.0,97.7,98.0,-1.3,0.1,1.09,GOOD
1790977283250,221,2063.0,-488.3800070795395,32000.0,97.7,98.0,-1.3,0.1,1.09,GOOD
1790977283250,222,2005.0,-432.3105730105464,32000.0,97.7,98.0,-1.3,0.1,1.09,GOOD
1790977283250,223,1953.0,-399.54380614959393,32000.0,97.7,98.0,-1.3,0.1,1.09,GOOD
1790977283250,224,1932.0,-408.3094739708873,32000.0,97.7,98.0,-1.3,0.1,1.09,GOOD
1790977283250,225,1928.0,-442.1969793422354,32000.0,97.7,98.0,-1.3,0.1,1.09,GOOD
1790977283402,226,1943.0,-474.9118519777958,32000.0,97.7,98.0,-1.5,-0.5,1.08,GOOD
1790977283402,227,1968.0,-492.54722723376113,32000.0,97.7,98.0,-1.5,-0.5,1.08,GOOD
1790977283402,228,1952.0,-493.93149422778595,32000.0,97.7,98.0,-1.5,-0.5,1.08,GOOD
1790977283402,229,1923.0,-484.4712245011398,32000.0,97.7,98.0,-1.5,-0.5,1.08,GOOD
1790977283402,230,1898.0,-473.36859463997587,32000.0,97.7,98.0,-1.5,-0.5,1.08,GOOD
1790977283402,231,1834.0,-472.769307108168,32000.0,97.7,98.0,-1.5,-0.5,1.08,GOOD
1790977283402,232,1908.0,-489.70126801868264,32000.0,97.7,98.0,-1.5,-0.5,1.08,GOOD
1790977283402,233,1913.0,-512.5233358552649,32000.0,97.7,98.0,-1.5,-0.5,1.08,GOOD
1790977283402,234,1899.0,-520.9158550106424,32000.0,97.7,98.0,-1.5,-0.5,1.08,GOOD
1790977283402,235,1897.0,-509.44708199128127,32000.0,97.7,98.0,-1.5,-0.5,1.08,GOOD
1790977283402,236,1952.0,-486.6620812553341,32000.0,97.7,98.0,-1.5,-0.5,1.08,GOOD
1790977283402,237,2030.0,-458.84037840201916,32000.0,97.7,98.0,-1.5,-0.5,1.08,GOOD
1790977283402,238,2046.0,-425.3500438715097,32000.0,97.7,98.0,-1.5,-0.5,1.08,GOOD
1790977283402,239,1930.0,-391.1268182371181,32000.0,97.7,98.0,-1.5,-0.5,1.08,GOOD
1790977283402,240,2031.0,-367.88030056768474,32000.0,97.7,98.0,-1.5,-0.5,1.08,GOOD
1790977283402,241,2051.0,-354.2744072179497,32000.0,97.7,98.0,-1.5,-0.5,1.08,GOOD
1790977283402,242,2056.0,-340.7697837961299,32000.0,97.7,98.0,-1.5,-0.5,1.08,GOOD
1790977283402,243,2063.0,-327.94521461721587,32000.0,97.7,98.0,-1.5,-0.5,1.08,GOOD
1790977283402,244,2081.0,-316.5477271820548,32000.0,97.7,98.0,-1.5,-0.5,1.08,GOOD
1790977283402,245,2066.0,-300.8157080361326,32000.0,97.7,98.0,-1.5,-0.5,1.08,GOOD
1790977283402,246,2011.0,-284.48435204424794,32000.0,97.7,98.0,-1.5,-0.5,1.08,GOOD
1790977283402,247,1957.0,-285.604272025169,32000.0,97.7,98.0,-1.5,-0.5,1.08,GOOD
1790977283402,248,1964.0,-314.45711252955505,32000.0,97.7,98.0,-1.5,-0.5,1.08,GOOD
1790977283402,249,2068.0,-351.5262260979974,32000.0,97.7,98.0,-1.5,-0.5,1.08,GOOD
1790977283402,250,2165.0,-358.2937555519252,32000.0,97.7,98.0,-1.5,-0.5,1.08,GOOD
1790977283556,251,2138.0,-317.4348762920052,32000.0,92.1,98.0,-1.3,-0.1,1.09,GOOD
1790977283556,252,2097.0,-255.11066462659667,32000.0,92.1,98.0,-1.3,-0.1,1.09,GOOD
1790977283556,253,1956.0,-217.06706129440494,32000.0,92.1,98.0,-1.3,-0.1,1.09,GOOD
1790977283556,254,2060.0,-225.88982951022916,32000.0,92.1,98.0,-1.3,-0.1,1.09,GOOD
1790977283556,255,2034.0,-262.66151132226764,32000.0,92.1,98.0,-1.3,-0.1,1.09,GOOD
1790977283556,256,2008.0,-297.099589806411,32000.0,92.1,98.0,-1.3,-0.1,1.09,GOOD
1790977283556,257,2082.0,-315.6558315624721,32000.0,92.1,98.0,-1.3,-0.1,1.09,GOOD
1790977283556,258,2084.0,-310.9611206230974,32000.0,92.1,98.0,-1.3,-0.1,1.09,GOOD
1790977283556,259,2093.0,-282.70182526648733,32000.0,92.1,98.0,-1.3,-0.1,1.09,GOOD
1790977283556,260,2174.0,-244.36086415057594,32000.0,92.1,98.0,-1.3,-0.1,1.09,GOOD
1790977283556,261,2162.0,-208.72931706895508,32000.0,92.1,98.0,-1.3,-0.1,1.09,GOOD
1790977283556,262,2087.0,-184.42787266716056,32000.0,92.1,98.0,-1.3,-0.1,1.09,GOOD
1790977283556,263,2044.0,-180.67688227077412,32000.0,92.1,98.0,-1.3,-0.1,1.09,GOOD
1790977283556,264,2029.0,-199.31406905546925,32000.0,92.1,98.0,-1.3,-0.1,1.09,GOOD
1790977283556,265,2035.0,-231.650732585956,32000.0,92.1,98.0,-1.3,-0.1,1.09,GOOD
1790977283556,266,2022.0,-266.20212035785346,32000.0,92.1,98.0,-1.3,-0.1,1.09,GOOD
1790977283556,267,2037.0,-292.07591598008185,32000.0,92.1,98.0,-1.3,-0.1,1.09,GOOD
1790977283556,268,2002.0,-300.6689376984916,32000.0,92.1,98.0,-1.3,-0.1,1.09,GOOD
1790977283556,269,1909.0,-297.5161212505134,32000.0,92.1,98.0,-1.3,-0.1,1.09,GOOD
1790977283556,270,1924.0,-303.43416007452095,32000.0,92.1,98.0,-1.3,-0.1,1.09,GOOD
1790977283556,271,1948.0,-328.1229758639945,32000.0,92.1,98.0,-1.3,-0.1,1.09,GOOD
1790977283556,272,1890.0,-358.96658869709063,32000.0,92.1,98.0,-1.3,-0.1,1.09,GOOD
1790977283556,273,1898.0,-380.83168899056943,32000.0,92.1,98.0,-1.3,-0.1,1.09,GOOD
1790977283556,274,2078.0,-380.4564501769985,32000.0,92.1,98.0,-1.3,-0.1,1.09,GOOD
1790977283556,275,2060.0,-345.8748813584235,32000.0,92.1,98.0,-1.3,-0.1,1.09,GOOD
1790977283557,276,2079.0,-288.06717053179176,32000.0,92.1,98.0,-1.3,-0.1,1.09,GOOD
1790977283557,277,2056.0,-235.9513402203793,32000.0,92.1,98.0,-1.3,-0.1,1.09,GOOD
1790977283557,278,2035.0,-205.43857054014063,32000.0,92.1,98.0,-1.3,-0.1,1.09,GOOD
1790977283557,279,2004.0,-197.1291721667758,32000.0,92.1,98.0,-1.3,-0.1,1.09,GOOD
1790977283557,280,1976.0,-210.24216601568767,32000.0,92.1,98.0,-1.3,-0.1,1.09,GOOD
1790977283557,281,1981.0,-241.30228516738623,32000.0,92.1,98.0,-1.3,-0.1,1.09,GOOD
1790977283557,282,2037.0,-273.42301054347627,32000.0,92.1,98.0,-1.3,-0.1,1.09,GOOD
1790977283557,283,2136.0,-278.46646096260616,32000.0,92.1,98.0,-1.3,-0.1,1.09,GOOD
1790977283557,284,2128.0,-241.70448795176497,32000.0,92.1,98.0,-1.3,-0.1,1.09,GOOD
1790977283557,285,2095.0,-183.52778384927194,32000.0,92.1,98.0,-1.3,-0.1,1.09,GOOD
1790977283557,286,2038.0,-143.42974132850102,32000.0,92.1,98.0,-1.3,-0.1,1.09,GOOD
1790977283557,287,1993.0,-143.65415080378276,32000.0,92.1,98.0,-1.3,-0.1,1.09,GOOD
1790977283557,288,1982.0,-176.7451597968098,32000.0,92.1,98.0,-1.3,-0.1,1.09,GOOD
1790977283557,289,2388.0,-204.2507154326928,32000.0,92.1,98.0,-1.3,-0.1,1.09,GOOD
1790977283557,290,2404.0,-171.1872848296415,32000.0,92.1,98.0,-1.3,-0.1,1.09,GOOD
1790977283557,291,2427.0,-65.6389638880897,32000.0,92.1,98.0,-1.3,-0.1,1.09,GOOD
1790977283557,292,2463.0,65.35886099546383,32000.0,92.1,98.0,-1.3,-0.1,1.09,GOOD
1790977283557,293,2576.0,177.60905697130673,32000.0,92.1,98.0,-1.3,-0.1,1.09,GOOD
1790977283557,294,2658.0,260.2446666967182,32000.0,92.1,98.0,-1.3,-0.1,1.09,GOOD
1790977283557,295,2674.0,315.83792613603174,32000.0,92.1,98.0,-1.3,-0.1,1.09,GOOD
1790977283557,296,2535.0,342.95549936190434,32000.0,92.1,98.0,-1.3,-0.1,1.09,GOOD
1790977283557,297,2315.0,330.72377514821835,32000.0,92.1,98.0,-1.3,-0.1,1.09,GOOD
1790977283557,298,2082.0,260.4404842996951,32000.0,92.1,98.0,-1.3,-0.1,1.09,GOOD
1790977283557,299,2005.0,121.61106235327341,32000.0,92.1,98.0,-1.3,-0.1,1.09,GOOD
1790977283557,300,1978.0,-63.199273832822534,32000.0,92.1,98.0,-1.3,-0.1,1.09,GOOD
1790977283706,301,2030.0,-235.61569990622874,32000.0,92.1,98.0,-1.6,-0.2,1.08,GOOD
1790977283706,302,2083.0,-332.22975270973996,32000.0,92.1,98.0,-1.6,-0.2,1.08,GOOD
1790977283706,303,2033.0,-330.87649874418423,32000.0,92.1,98.0,-1.6,-0.2,1.08,GOOD
1790977283706,304,1931.0,-276.2705300087887,32000.0,92.1,98.0,-1.6,-0.2,1.08,GOOD
1790977283706,305,1853.0,-245.7927277113183,32000.0,92.1,98.0,-1.6,-0.2,1.08,GOOD
1790977283706,306,1873.0,-278.3135061060474,32000.0,92.1,98.0,-1.6,-0.2,1.08,GOOD
1790977283706,307,1914.0,-344.0522649771567,32000.0,92.1,98.0,-1.6,-0.2,1.08,GOOD
1790977283706,308,1878.0,-389.02227049505564,32000.0,92.1,98.0,-1.6,-0.2,1.08,GOOD
1790977283706,309,1864.0,-395.06094281932263,32000.0,92.1,98.0,-1.6,-0.2,1.08,GOOD
1790977283706,310,1834.0,-384.1073291428112,32000.0,92.1,98.0,-1.6,-0.2,1.08,GOOD
1790977283706,311,1784.0,-383.02882044412945,32000.0,92.1,98.0,-1.6,-0.2,1.08,GOOD
1790977283706,312,1881.0,-396.005260126077,32000.0,92.1,98.0,-1.6,-0.2,1.08,GOOD
1790977283706,313,2041.0,-396.76807467702497,32000.0,92.1,98.0,-1.6,-0.2,1.08,GOOD
1790977283706,314,2163.0,-351.5243874419141,32000.0,92.1,98.0,-1.6,-0.2,1.08,GOOD
1790977283706,315,2194.0,-256.73682505625095,32000.0,92.1,98.0,-1.6,-0.2,1.08,GOOD
1790977283706,316,2149.0,-146.5547744053392,32000.0,92.1,98.0,-1.6,-0.2,1.08,GOOD
1790977283706,317,2026.0,-68.24380746056306,32000.0,92.1,98.0,-1.6,-0.2,1.08,GOOD
1790977283706,318,1992.0,-53.548280268201495,32000.0,92.1,98.0,-1.6,-0.2,1.08,GOOD
1790977283706,319,2018.0,-98.28123531274304,32000.0,92.1,98.0,-1.6,-0.2,1.08,GOOD
1790977283706,320,2086.0,-163.3098748482102,32000.0,92.1,98.0,-1.6,-0.2,1.08,GOOD
1790977283706,321,2158.0,-200.25331840882743,32000.0,92.1,98.0,-1.6,-0.2,1.08,GOOD
1790977283706,322,2215.0,-180.87986539859747,32000.0,92.1,98.0,-1.6,-0.2,1.08,GOOD
1790977283706,323,2144.0,-116.10732970415091,32000.0,92.1,98.0,-1.6,-0.2,1.08,GOOD
1790977283706,324,2088.0,-52.46777199981234,32000.0,92.1,98.0,-1.6,-0.2,1.08,GOOD
1790977283706,325,2065.0,-34.25497523236952,32000.0,92.1,98.0,-1.6,-0.2,1.08,GOOD
1790977283993,326,2083.0,-64.56613049483998,32000.0,92.1,98.0,-1.3,-0.2,1.08,GOOD
1790977283993,327,2096.0,-109.992763592128,32000.0,92.1,98.0,-1.3,-0.2,1.08,GOOD
1790977283993,328,2069.0,-138.03567416171802,32000.0,92.1,98.0,-1.3,-0.2,1.08,GOOD
1790977283993,329,2052.0,-143.25754390903984,32000.0,92.1,98.0,-1.3,-0.2,1.08,GOOD
1790977283993,330,2004.0,-141.61931006427852,32000.0,92.1,98.0,-1.3,-0.2,1.08,GOOD
1790977283993,331,1988.0,-149.87748406131698,32000.0,92.1,98.0,-1.3,-0.2,1.08,GOOD
1790977283993,332,2064.0,-168.0368258844088,32000.0,92.1,98.0,-1.3,-0.2,1.08,GOOD
1790977283993,333,2341.0,-168.10558529371002,32000.0,92.1,98.0,-1.3,-0.2,1.08,GOOD
1790977283993,334,2304.0,-115.61176026716524,32000.0,92.1,98.0,-1.3,-0.2,1.08,GOOD
1790977283993,335,2365.0,-16.77913590163131,32000.0,92.1,98.0,-1.3,-0.2,1.08,GOOD
1790977283993,336,2347.0,85.53171186324742,32000.0,92.1,98.0,-1.3,-0.2,1.08,GOOD
1790977283993,337,2224.0,150.95009238367257,32000.0,92.1,98.0,-1.3,-0.2,1.08,GOOD
1790977283993,338,2298.0,159.14753985382464,32000.0,92.1,98.0,-1.3,-0.2,1.08,GOOD
1790977283993,339,2267.0,122.6046960910884,32000.0,92.1,98.0,-1.3,-0.2,1.08,GOOD
1790977283993,340,2238.0,74.82253039196192,32000.0,92.1,98.0,-1.3,-0.2,1.08,GOOD
1790977283993,341,2231.0,39.40666449267078,32000.0,92.1,98.0,-1.3,-0.2,1.08,GOOD
1790977283993,342,2232.0,23.430694282632224,32000.0,92.1,98.0,-1.3,-0.2,1.08,GOOD
1790977283993,343,2231.0,21.497377489968706,32000.0,92.1,98.0,-1.3,-0.2,1.08,GOOD
1790977283993,344,2175.0,19.16444370145777,32000.0,92.1,98.0,-1.3,-0.2,1.08,GOOD
1790977283993,345,2054.0,0.23946483009498998,32000.0,92.1,98.0,-1.3,-0.2,1.08,GOOD
1790977283993,346,2063.0,-41.27549496880729,32000.0,92.1,98.0,-1.3,-0.2,1.08,GOOD
1790977283993,347,2093.0,-90.59150755996168,32000.0,92.1,98.0,-1.3,-0.2,1.08,GOOD
1790977283993,348,2069.0,-126.60615005507798,32000.0,92.1,98.0,-1.3,-0.2,1.08,GOOD
1790977283993,349,1949.0,-149.801808263223,32000.0,92.1,98.0,-1.3,-0.2,1.08,GOOD
1790977283993,350,2131.0,-169.25030920937832,32000.0,92.1,98.0,-1.3,-0.2,1.08,GOOD
1790977283994,351,2252.0,-165.7798264289723,32000.0,92.1,98.0,-1.3,-0.2,1.08,GOOD
1790977283994,352,2260.0,-115.13174286704333,32000.0,92.1,98.0,-1.3,-0.2,1.08,GOOD
1790977283994,353,2197.0,-38.24082877907503,32000.0,92.1,98.0,-1.3,-0.2,1.08,GOOD
1790977283994,354,2145.0,16.22905433754449,32000.0,92.1,98.0,-1.3,-0.2,1.08,GOOD
1790977283994,355,2117.0,23.50444760895794,32000.0,92.1,98.0,-1.3,-0.2,1.08,GOOD
1790977283994,356,2055.0,-8.101171433242113,32000.0,92.1,98.0,-1.3,-0.2,1.08,GOOD
1790977283994,357,2021.0,-61.83898149961965,32000.0,92.1,98.0,-1.3,-0.2,1.08,GOOD
1790977283994,358,2033.0,-122.28855367025048,32000.0,92.1,98.0,-1.3,-0.2,1.08,GOOD
1790977283994,359,2015.0,-170.20060471353196,32000.0,92.1,98.0,-1.3,-0.2,1.08,GOOD
1790977283994,360,1977.0,-192.69665316293847,32000.0,92.1,98.0,-1.3,-0.2,1.08,GOOD
1790977283994,361,1975.0,-195.83987978743156,32000.0,92.1,98.0,-1.3,-0.2,1.08,GOOD
1790977283994,362,1989.0,-195.14618777394867,32000.0,92.1,98.0,-1.3,-0.2,1.08,GOOD
1790977283994,363,2000.0,-198.4770501283765,32000.0,92.1,98.0,-1.3,-0.2,1.08,GOOD
1790977283994,364,1998.0,-201.94019837362475,32000.0,92.1,98.0,-1.3,-0.2,1.08,GOOD
1790977283994,365,2022.0,-197.0426297966669,32000.0,92.1,98.0,-1.3,-0.2,1.08,GOOD
1790977283994,366,1988.0,-181.97130146428424,32000.0,92.1,98.0,-1.3,-0.2,1.08,GOOD
1790977283994,367,1974.0,-168.18332855536684,32000.0,92.1,98.0,-1.3,-0.2,1.08,GOOD
1790977283994,368,1943.0,-170.07090824125862,32000.0,92.1,98.0,-1.3,-0.2,1.08,GOOD
1790977283994,369,1895.0,-190.11413525476874,32000.0,92.1,98.0,-1.3,-0.2,1.08,GOOD
1790977283994,370,1898.0,-218.65793382428902,32000.0,92.1,98.0,-1.3,-0.2,1.08,GOOD
1790977283994,371,1890.0,-243.08395375085286,32000.0,92.1,98.0,-1.3,-0.2,1.08,GOOD
1790977283994,372,2096.0,-249.61305742712258,32000.0,92.1,98.0,-1.3,-0.2,1.08,GOOD
1790977283994,373,2080.0,-223.21755981021587,32000.0,92.1,98.0,-1.3,-0.2,1.08,GOOD
1790977283994,374,1874.0,-174.46186737954065,32000.0,92.1,98.0,-1.3,-0.2,1.08,GOOD
1790977283994,375,1872.0,-146.06851709163766,32000.0,92.1,98.0,-1.3,-0.2,1.08,GOOD
1790977286336,376,1875.0,-161.2077446931765,42.0,92.7,98.0,-1.3,-0.2,1.08,GOOD
1790977286336,377,1840.0,-204.8614488455711,44.0,92.7,98.0,-1.3,-0.2,1.08,GOOD
1790977286336,378,1949.0,-251.83912799307103,48.0,92.7,98.0,-1.3,-0.2,1.08,GOOD
1790977286336,379,1923.0,-275.72085110708394,48.0,92.7,98.0,-1.3,-0.2,1.08,GOOD
1790977286336,380,1923.0,-261.07893662869026,49.0,92.7,98.0,-1.3,-0.2,1.08,GOOD
1790977286336,381,1871.0,-222.46447389330513,47.0,92.7,98.0,-1.3,-0.2,1.08,GOOD
1790977286336,382,1837.0,-194.97310082520133,48.0,92.7,98.0,-1.3,-0.2,1.08,GOOD
1790977286336,383,1938.0,-199.50771158538953,41.0,92.7,98.0,-1.3,-0.2,1.08,GOOD
1790977286336,384,2044.0,-214.4026836829699,40.0,92.7,98.0,-1.3,-0.2,1.08,GOOD
1790977286336,385,2116.0,-195.69236339587079,38.0,92.7,98.0,-1.3,-0.2,1.08,GOOD
1790977286336,386,2112.0,-128.31391696879035,36.0,92.7,98.0,-1.3,-0.2,1.08,GOOD
1790977286336,387,2059.0,-44.72207583270189,35.0,92.7,98.0,-1.3,-0.2,1.08,GOOD
1790977286336,388,2030.0,6.368198003525473,34.0,92.7,98.0,-1.3,-0.2,1.08,GOOD
1790977286336,389,2046.0,5.48654279981651,32.0,92.7,98.0,-1.3,-0.2,1.08,GOOD
1790977286336,390,2047.0,-25.649081447511783,35.0,92.7,98.0,-1.3,-0.2,1.08,GOOD
1790977286336,391,2053.0,-53.303957989255316,34.0,92.7,98.0,-1.3,-0.2,1.08,GOOD
1790977286336,392,2015.0,-63.05326787224706,30.0,92.7,98.0,-1.3,-0.2,1.08,GOOD
1790977286336,393,1989.0,-64.04534531730931,22.0,92.7,98.0,-1.3,-0.2,1.08,GOOD
1790977286336,394,1987.0,-70.38665661058677,18.0,92.7,98.0,-1.3,-0.2,1.08,GOOD
1790977286336,395,2012.0,-82.98082605083692,11.0,92.7,98.0,-1.3,-0.2,1.08,GOOD
1790977286336,396,2043.0,-90.53873329915731,5.0,92.7,98.0,-1.3,-0.2,1.08,GOOD
1790977286336,397,1998.0,-85.90840107176668,-1.0,92.7,98.0,-1.3,-0.2,1.08,GOOD
1790977286336,398,2013.0,-75.42171056229691,-4.0,92.7,98.0,-1.3,-0.2,1.08,GOOD
1790977286336,399,2012.0,-67.98069165532553,-8.0,92.7,98.0,-1.3,-0.2,1.08,GOOD
1790977286336,400,2032.0,-64.41024784886477,-12.0,92.7,98.0,-1.3,-0.2,1.08,GOOD
1790977286336,401,2064.0,-60.1030756028298,32000.0,92.7,98.0,-1.3,-0.2,1.08,GOOD
1790977286336,402,2033.0,-51.48461370062786,32000.0,92.7,98.0,-1.3,-0.2,1.08,GOOD
1790977286336,403,2005.0,-42.22343435400414,32000.0,92.7,98.0,-1.3,-0.2,1.08,GOOD
1790977286336,404,1990.0,-40.51965534418912,32000.0,92.7,98.0,-1.3,-0.2,1.08,GOOD
1790977286336,405,1992.0,-49.42110462361641,32000.0,92.7,98.0,-1.3,-0.2,1.08,GOOD
1790977286336,406,2031.0,-63.07672501139157,32000.0,92.7,98.0,-1.3,-0.2,1.08,GOOD
1790977286336,407,2022.0,-71.0302592413433,32000.0,92.7,98.0,-1.3,-0.2,1.08,GOOD
1790977286336,408,2072.0,-65.52131221886363,32000.0,92.7,98.0,-1.3,-0.2,1.08,GOOD
1790977286336,409,2082.0,-44.69214410191065,32000.0,92.7,98.0,-1.3,-0.2,1.08,GOOD
1790977286336,410,2055.0,-16.06122762789492,32000.0,92.7,98.0,-1.3,-0.2,1.08,GOOD
1790977286336,411,2035.0,3.6769198461115784,32000.0,92.7,98.0,-1.3,-0.2,1.08,GOOD
1790977286336,412,1989.0,1.9393574673226492,32000.0,92.7,98.0,-1.3,-0.2,1.08,GOOD
1790977286336,413,2019.0,-17.99053516303155,32000.0,92.7,98.0,-1.3,-0.2,1.08,GOOD
1790977286336,414,2020.0,-40.10659863946076,32000.0,92.7,98.0,-1.3,-0.2,1.08,GOOD
1790977286336,415,2038.0,-50.65328138770701,32000.0,92.7,98.0,-1.3,-0.2,1.08,GOOD
1790977286336,416,2080.0,-46.345995333423275,32000.0,92.7,98.0,-1.3,-0.2,1.08,GOOD
1790977286336,417,2128.0,-27.227245654444452,32000.0,92.7,98.0,-1.3,-0.2,1.08,GOOD
1790977286336,418,2135.0,5.7036342769845305,32000.0,92.7,98.0,-1.3,-0.2,1.08,GOOD
1790977286336,419,2108.0,42.809476139367305,32000.0,92.7,98.0,-1.3,-0.2,1.08,GOOD
1790977286336,420,2045.0,65.35199096116372,32000.0,92.7,98.0,-1.3,-0.2,1.08,GOOD
1790977286336,421,1945.0,55.61732746033535,32000.0,92.7,98.0,-1.3,-0.2,1.08,GOOD
1790977286336,422,2004.0,12.945485517389992,32000.0,92.7,98.0,-1.3,-0.2,1.08,GOOD
1790977286336,423,1968.0,-39.53346359025972,32000.0,92.7,98.0,-1.3,-0.2,1.08,GOOD
1790977286336,424,2065.0,-73.2549043925778,32000.0,92.7,98.0,-1.3,-0.2,1.08,GOOD
1790977286336,425,2126.0,-71.17596132596393,32000.0,92.7,98.0,-1.3,-0.2,1.08,GOOD
1790977289472,426,2108.0,-33.436287278003014,-73.0,101.7,98.0,-1.3,-0.1,1.08,GOOD
1790977289472,427,2041.0,16.293006984201316,-76.0,101.7,98.0,-1.3,-0.1,1.08,GOOD
1790977289472,428,1957.0,42.50896652398676,-77.0,101.7,98.0,-1.3,-0.1,1.08,GOOD
1790977289472,429,1997.0,27.269283730019595,-75.0,101.7,98.0,-1.3,-0.1,1.08,GOOD
1790977289472,430,2011.0,-14.120694119342335,-72.0,101.7,98.0,-1.3,-0.1,1.08,GOOD
1790977289472,431,1991.0,-51.97450407954083,-73.0,101.7,98.0,-1.3,-0.1,1.08,GOOD
1790977289472,432,1969.0,-70.82045540222913,-71.0,101.7,98.0,-1.3,-0.1,1.08,GOOD
1790977289472,433,1989.0,-71.8625904745172,-69.0,101.7,98.0,-1.3,-0.1,1.08,GOOD
1790977289472,434,1999.0,-61.94957716558122,-69.0,101.7,98.0,-1.3,-0.1,1.08,GOOD
1790977289472,435,2016.0,-49.521694536395614,-66.0,101.7,98.0,-1.3,-0.1,1.08,GOOD
1790977289472,436,2021.0,-40.726234533702794,-65.0,101.7,98.0,-1.3,-0.1,1.08,GOOD
1790977289472,437,2182.0,-28.016861881563013,-63.0,101.7,98.0,-1.3,-0.1,1.08,GOOD
1790977289472,438,2212.0,8.854023328662889,-59.0,101.7,98.0,-1.3,-0.1,1.08,GOOD
1790977289472,439,2193.0,72.26829868470787,-59.0,101.7,98.0,-1.3,-0.1,1.08,GOOD
1790977289472,440,2242.0,135.68788648510983,-56.0,101.7,98.0,-1.3,-0.1,1.08,GOOD
1790977289472,441,2336.0,180.59483309169042,-51.0,101.7,98.0,-1.3,-0.1,1.08,GOOD
1790977289472,442,2480.0,220.50909294487235,-50.0,101.7,98.0,-1.3,-0.1,1.08,GOOD
1790977289472,443,2549.0,279.5593255115274,-45.0,101.7,98.0,-1.3,-0.1,1.08,GOOD
1790977289472,444,2488.0,357.4312084002571,-44.0,101.7,98.0,-1.3,-0.1,1.08,GOOD
1790977289472,445,2398.0,420.90190816440156,-42.0,101.7,98.0,-1.3,-0.1,1.08,GOOD
1790977289472,446,2279.0,431.87555932500743,-41.0,101.7,98.0,-1.3,-0.1,1.08,GOOD
1790977289472,447,2004.0,369.57972711625115,-37.0,101.7,98.0,-1.3,-0.1,1.08,GOOD
1790977289472,448,2011.0,236.94628363054198,-36.0,101.7,98.0,-1.3,-0.1,1.08,GOOD
1790977289472,449,2023.0,76.09705951023182,-33.0,101.7,98.0,-1.3,-0.1,1.08,GOOD
1790977289472,450,2011.0,-49.606644803817225,-34.0,101.7,98.0,-1.3,-0.1,1.08,GOOD
1790977289473,451,1984.0,-108.65679394947858,32000.0,101.7,98.0,-1.3,-0.1,1.08,GOOD
1790977289473,452,1989.0,-114.02309526960417,32000.0,101.7,98.0,-1.3,-0.1,1.08,GOOD
1790977289473,453,1981.0,-95.60532065419233,32000.0,101.7,98.0,-1.3,-0.1,1.08,GOOD
1790977289473,454,1963.0,-79.4913976228296,32000.0,101.7,98.0,-1.3,-0.1,1.08,GOOD
1790977289473,455,1946.0,-79.86507453590428,32000.0,101.7,98.0,-1.3,-0.1,1.08,GOOD
1790977289473,456,1978.0,-93.62359814140001,32000.0,101.7,98.0,-1.3,-0.1,1.08,GOOD
1790977289473,457,2061.0,-101.51760142847795,32000.0,101.7,98.0,-1.3,-0.1,1.08,GOOD
1790977289473,458,2134.0,-82.81248341394542,32000.0,101.7,98.0,-1.3,-0.1,1.08,GOOD
1790977289473,459,2136.0,-35.4538759974626,32000.0,101.7,98.0,-1.3,-0.1,1.08,GOOD
1790977289473,460,2028.0,16.345133344490346,32000.0,101.7,98.0,-1.3,-0.1,1.08,GOOD
1790977289473,461,2148.0,45.7849919793924,32000.0,101.7,98.0,-1.3,-0.1,1.08,GOOD
1790977289473,462,2128.0,54.55587633911663,32000.0,101.7,98.0,-1.3,-0.1,1.08,GOOD
1790977289473,463,2123.0,57.96300914960641,32000.0,101.7,98.0,-1.3,-0.1,1.08,GOOD
1790977289473,464,2094.0,57.326705137121536,32000.0,101.7,98.0,-1.3,-0.1,1.08,GOOD
1790977289473,465,2060.0,48.251509736070055,32000.0,101.7,98.0,-1.3,-0.1,1.08,GOOD
1790977289473,466,2022.0,31.43003543255743,32000.0,101.7,98.0,-1.3,-0.1,1.08,GOOD
1790977289473,467,1965.0,7.022739780706624,32000.0,101.7,98.0,-1.3,-0.1,1.08,GOOD
1790977289473,468,1932.0,-28.431642078085076,32000.0,101.7,98.0,-1.3,-0.1,1.08,GOOD
1790977289473,469,1893.0,-74.74763830185836,32000.0,101.7,98.0,-1.3,-0.1,1.08,GOOD
1790977289473,470,1907.0,-121.21628647836563,32000.0,101.7,98.0,-1.3,-0.1,1.08,GOOD
1790977289473,471,1883.0,-152.86098981747344,32000.0,101.7,98.0,-1.3,-0.1,1.08,GOOD
1790977289473,472,2005.0,-160.20451876918784,32000.0,101.7,98.0,-1.3,-0.1,1.08,GOOD
1790977289473,473,1998.0,-141.15028593342237,32000.0,101.7,98.0,-1.3,-0.1,1.08,GOOD
1790977289473,474,2009.0,-104.60901980694194,32000.0,101.7,98.0,-1.3,-0.1,1.08,GOOD
1790977289473,475,2079.0,-64.3180038580621,32000.0,101.7,98.0,-1.3,-0.1,1.08,GOOD
1790977289474,476,2029.0,-26.472655836674388,32000.0,101.7,98.0,-1.3,-0.1,1.08,GOOD
1790977289474,477,2090.0,4.065773219701051,32000.0,101.7,98.0,-1.3,-0.1,1.08,GOOD
1790977289474,478,2048.0,21.03365519330258,32000.0,101.7,98.0,-1.3,-0.1,1.08,GOOD
1790977289474,479,1962.0,19.64507789879768,32000.0,101.7,98.0,-1.3,-0.1,1.08,GOOD
1790977289474,480,1942.0,-3.2145674559498114,32000.0,101.7,98.0,-1.3,-0.1,1.08,GOOD
1790977289474,481,1949.0,-39.50339849327964,32000.0,101.7,98.0,-1.3,-0.1,1.08,GOOD
1790977289474,482,1958.0,-72.34282841126846,32000.0,101.7,98.0,-1.3,-0.1,1.08,GOOD
1790977289474,483,1989.0,-90.70327702399855,32000.0,101.7,98.0,-1.3,-0.1,1.08,GOOD
1790977289474,484,1983.0,-91.97610693576749,32000.0,101.7,98.0,-1.3,-0.1,1.08,GOOD
1790977289474,485,1990.0,-78.46616027436444,32000.0,101.7,98.0,-1.3,-0.1,1.08,GOOD
1790977289474,486,1996.0,-56.81585546381632,32000.0,101.7,98.0,-1.3,-0.1,1.08,GOOD
1790977289474,487,1962.0,-38.39898952366733,32000.0,101.7,98.0,-1.3,-0.1,1.08,GOOD
1790977289474,488,1992.0,-34.03660335055922,32000.0,101.7,98.0,-1.3,-0.1,1.08,GOOD
1790977289474,489,2056.0,-39.20130118445475,32000.0,101.7,98.0,-1.3,-0.1,1.08,GOOD
1790977289474,490,2083.0,-33.884234350762185,32000.0,101.7,98.0,-1.3,-0.1,1.08,GOOD
1790977289474,491,2101.0,-6.477337020939583,32000.0,101.7,98.0,-1.3,-0.1,1.08,GOOD
1790977289474,492,2121.0,33.78160545913014,32000.0,101.7,98.0,-1.3,-0.1,1.08,GOOD
1790977289474,493,2270.0,75.35448054651607,32000.0,101.7,98.0,-1.3,-0.1,1.08,GOOD
1790977289474,494,2271.0,120.77764949504008,32000.0,101.7,98.0,-1.3,-0.1,1.08,GOOD
1790977289474,495,2353.0,174.62186275753646,32000.0,101.7,98.0,-1.3,-0.1,1.08,GOOD
1790977289474,496,2517.0,238.91157616843714,32000.0,101.7,98.0,-1.3,-0.1,1.08,GOOD
1790977289474,497,2627.0,321.4599055195402,32000.0,101.7,98.0,-1.3,-0.1,1.08,GOOD
1790977289474,498,2611.0,418.96600363490177,32000.0,101.7,98.0,-1.3,-0.1,1.08,GOOD
1790977289474,499,2427.0,497.5633391651279,32000.0,101.7,98.0,-1.3,-0.1,1.08,GOOD
1790977289474,500,2102.0,503.84201845944136,32000.0,101.7,98.0,-1.3,-0.1,1.08,GOOD
1790977291757,501,1906.0,399.6493543293173,-863.0,124.0,98.0,-1.4,-0.2,1.08,GOOD
1790977291757,502,1912.0,202.4827866391296,-855.0,124.0,98.0,-1.4,-0.2,1.08,GOOD
1790977291757,503,1907.0,-13.310942255140318,-852.0,124.0,98.0,-1.4,-0.2,1.08,GOOD
1790977291757,504,2031.0,-165.61343201086055,-850.0,124.0,98.0,-1.4,-0.2,1.08,GOOD
1790977291757,505,2062.0,-209.03351544259732,-847.0,124.0,98.0,-1.4,-0.2,1.08,GOOD
1790977291757,506,2029.0,-155.09222887274404,-844.0,124.0,98.0,-1.4,-0.2,1.08,GOOD
1790977291757,507,1915.0,-69.42171908002999,-839.0,124.0,98.0,-1.4,-0.2,1.08,GOOD
1790977291757,508,1847.0,-29.04023873273063,-832.0,124.0,98.0,-1.4,-0.2,1.08,GOOD
1790977291757,509,1822.0,-65.20923193446455,-833.0,124.0,98.0,-1.4,-0.2,1.08,GOOD
1790977291757,510,1814.0,-147.39663437389936,-828.0,124.0,98.0,-1.4,-0.2,1.08,GOOD
1790977291757,511,2037.0,-212.32346121524537,-823.0,124.0,98.0,-1.4,-0.2,1.08,GOOD
1790977291757,512,1901.0,-214.24464057780494,-815.0,124.0,98.0,-1.4,-0.2,1.08,GOOD
1790977291757,513,2164.0,-158.86517093280526,-811.0,124.0,98.0,-1.4,-0.2,1.08,GOOD
1790977291757,514,2223.0,-71.79966686923895,-808.0,124.0,98.0,-1.4,-0.2,1.08,GOOD
1790977291757,515,2562.0,43.420388862646696,-804.0,124.0,98.0,-1.4,-0.2,1.08,GOOD
1790977291757,516,2607.0,193.85494504319394,-803.0,124.0,98.0,-1.4,-0.2,1.08,GOOD
1790977291757,517,2720.0,365.355803271013,-797.0,124.0,98.0,-1.4,-0.2,1.08,GOOD
1790977291757,518,2667.0,517.9802068457526,-797.0,124.0,98.0,-1.4,-0.2,1.08,GOOD
1790977291757,519,2584.0,610.0986240705722,-793.0,124.0,98.0,-1.4,-0.2,1.08,GOOD
1790977291757,520,2490.0,619.440201675634,-790.0,124.0,98.0,-1.4,-0.2,1.08,GOOD
1790977291757,521,1862.0,531.901391724768,-787.0,124.0,98.0,-1.4,-0.2,1.08,GOOD
1790977291757,522,1821.0,332.7743055861298,-785.0,124.0,98.0,-1.4,-0.2,1.08,GOOD
1790977291757,523,1827.0,62.285980022368705,-777.0,124.0,98.0,-1.4,-0.2,1.08,GOOD
1790977291757,524,1810.0,-178.20587220300547,-772.0,124.0,98.0,-1.4,-0.2,1.08,GOOD
1790977291757,525,1760.0,-321.35398393972656,-767.0,124.0,98.0,-1.4,-0.2,1.08,GOOD
1790977291758,526,1913.0,-364.73496244687533,32000.0,124.0,98.0,-1.4,-0.2,1.08,GOOD
1790977291758,527,2071.0,-321.63516738605813,32000.0,124.0,98.0,-1.4,-0.2,1.08,GOOD
1790977291758,528,2140.0,-210.42360300952066,32000.0,124.0,98.0,-1.4,-0.2,1.08,GOOD
1790977291758,529,2122.0,-77.30383228414075,32000.0,124.0,98.0,-1.4,-0.2,1.08,GOOD
1790977291758,530,2008.0,17.450345243443493,32000.0,124.0,98.0,-1.4,-0.2,1.08,GOOD
1790977291758,531,2009.0,42.55057375798742,32000.0,124.0,98.0,-1.4,-0.2,1.08,GOOD
1790977291758,532,2015.0,15.141669545000207,32000.0,124.0,98.0,-1.4,-0.2,1.08,GOOD
1790977291758,533,1997.0,-27.414743360317328,32000.0,124.0,98.0,-1.4,-0.2,1.08,GOOD
1790977291758,534,2035.0,-62.79695561392943,32000.0,124.0,98.0,-1.4,-0.2,1.08,GOOD
1790977291758,535,2103.0,-79.08356722656289,32000.0,124.0,98.0,-1.4,-0.2,1.08,GOOD
1790977291758,536,2129.0,-63.281058300826736,32000.0,124.0,98.0,-1.4,-0.2,1.08,GOOD
1790977291758,537,2089.0,-18.211947317916888,32000.0,124.0,98.0,-1.4,-0.2,1.08,GOOD
1790977291758,538,2062.0,26.89084975456604,32000.0,124.0,98.0,-1.4,-0.2,1.08,GOOD
1790977291758,539,2083.0,42.43192617869444,32000.0,124.0,98.0,-1.4,-0.2,1.08,GOOD
1790977291758,540,2078.0,27.859020999768475,32000.0,124.0,98.0,-1.4,-0.2,1.08,GOOD
1790977291758,541,1990.0,1.929325136972445,32000.0,124.0,98.0,-1.4,-0.2,1.08,GOOD
1790977291758,542,2118.0,-18.754837575213458,32000.0,124.0,98.0,-1.4,-0.2,1.08,GOOD
1790977291758,543,2119.0,-20.70615091336194,32000.0,124.0,98.0,-1.4,-0.2,1.08,GOOD
1790977291758,544,2087.0,-3.604896827953805,32000.0,124.0,98.0,-1.4,-0.2,1.08,GOOD
1790977291758,545,2087.0,14.338497190894039,32000.0,124.0,98.0,-1.4,-0.2,1.08,GOOD
1790977291758,546,2123.0,22.91654574292328,32000.0,124.0,98.0,-1.4,-0.2,1.08,GOOD
1790977291758,547,2150.0,30.98027812040331,32000.0,124.0,98.0,-1.4,-0.2,1.08,GOOD
1790977291758,548,2166.0,46.115086532524586,32000.0,124.0,98.0,-1.4,-0.2,1.08,GOOD
1790977291758,549,2148.0,62.77914195988885,32000.0,124.0,98.0,-1.4,-0.2,1.08,GOOD
1790977291758,550,2170.0,73.05489409400703,32000.0,124.0,98.0,-1.4,-0.2,1.08,GOOD
1790977292227,551,2201.0,80.0141243538436,-493.0,106.2,98.0,-1.3,-0.2,1.08,GOOD
1790977292227,552,2228.0,92.94424132812948,-493.0,106.2,98.0,-1.3,-0.2,1.08,GOOD
1790977292227,553,2226.0,112.46693000033193,-493.0,106.2,98.0,-1.3,-0.2,1.08,GOOD
1790977292227,554,2292.0,131.99607245015812,-496.0,106.2,98.0,-1.3,-0.2,1.08,GOOD
1790977292227,555,2295.0,151.21130661367368,-497.0,106.2,98.0,-1.3,-0.2,1.08,GOOD
1790977292227,556,2299.0,173.3973806497541,-498.0,106.2,98.0,-1.3,-0.2,1.08,GOOD
1790977292227,557,2304.0,195.01229891069028,-502.0,106.2,98.0,-1.3,-0.2,1.08,GOOD
1790977292227,558,2326.0,209.43478826667194,-504.0,106.2,98.0,-1.3,-0.2,1.08,GOOD
1790977292227,559,2370.0,216.63916715307687,-503.0,106.2,98.0,-1.3,-0.2,1.08,GOOD
1790977292227,560,2320.0,221.75973565877106,-508.0,106.2,98.0,-1.3,-0.2,1.08,GOOD
1790977292227,561,2422.0,229.13052170155441,-511.0,106.2,98.0,-1.3,-0.2,1.08,GOOD
1790977292227,562,2415.0,244.03849130696017,-514.0,106.2,98.0,-1.3,-0.2,1.08,GOOD
1790977292227,563,2436.0,266.94896885132187,-516.0,106.2,98.0,-1.3,-0.2,1.08,GOOD
1790977292227,564,2431.0,288.3081232557714,-520.0,106.2,98.0,-1.3,-0.2,1.08,GOOD
1790977292227,565,2421.0,299.5542092410045,-521.0,106.2,98.0,-1.3,-0.2,1.08,GOOD
1790977292227,566,2431.0,300.19994254136964,-523.0,106.2,98.0,-1.3,-0.2,1.08,GOOD
1790977292227,567,2443.0,295.1549455351823,-523.0,106.2,98.0,-1.3,-0.2,1.08,GOOD
1790977292227,568,2447.0,289.5808460361508,-524.0,106.2,98.0,-1.3,-0.2,1.08,GOOD
1790977292227,569,2368.0,282.3305448756547,-510.0,106.2,98.0,-1.3,-0.2,1.08,GOOD
1790977292227,570,2259.0,262.38746840568433,-513.0,106.2,98.0,-1.3,-0.2,1.08,GOOD
1790977292227,571,2342.0,222.97188819081936,-515.0,106.2,98.0,-1.3,-0.2,1.08,GOOD
1790977292227,572,2341.0,179.21488196134177,-517.0,106.2,98.0,-1.3,-0.2,1.08,GOOD
1790977292227,573,2306.0,149.95225302782472,-516.0,106.2,98.0,-1.3,-0.2,1.08,GOOD
1790977292227,574,2346.0,136.90075732647972,-510.0,106.2,98.0,-1.3,-0.2,1.08,GOOD
1790977292227,575,2274.0,134.63711517662563,-510.0,106.2,98.0,-1.3,-0.2,1.08,GOOD
1790977292228,576,2157.0,130.15592253239907,32000.0,106.2,98.0,-1.3,-0.2,1.08,GOOD
1790977292228,577,2219.0,105.08383399402734,32000.0,106.2,98.0,-1.3,-0.2,1.08,GOOD
1790977292228,578,2173.0,60.49284491484734,32000.0,106.2,98.0,-1.3,-0.2,1.08,GOOD
1790977292228,579,2150.0,14.136600903303513,32000.0,106.2,98.0,-1.3,-0.2,1.08,GOOD
1790977292228,580,2115.0,-21.793080048937725,32000.0,106.2,98.0,-1.3,-0.2,1.08,GOOD
1790977292228,581,2070.0,-45.89221473254418,32000.0,106.2,98.0,-1.3,-0.2,1.08,GOOD
1790977292228,582,2063.0,-65.37188426506614,32000.0,106.2,98.0,-1.3,-0.2,1.08,GOOD
1790977292228,583,2032.0,-89.10105519787749,32000.0,106.2,98.0,-1.3,-0.2,1.08,GOOD
1790977292228,584,2011.0,-118.98041784591159,32000.0,106.2,98.0,-1.3,-0.2,1.08,GOOD
1790977292228,585,2006.0,-148.08834937923388,32000.0,106.2,98.0,-1.3,-0.2,1.08,GOOD
1790977292228,586,2004.0,-166.52275856433337,32000.0,106.2,98.0,-1.3,-0.2,1.08,GOOD
1790977292228,587,2014.0,-171.50089477096964,32000.0,106.2,98.0,-1.3,-0.2,1.08,GOOD
1790977292228,588,1998.0,-169.84810282181786,32000.0,106.2,98.0,-1.3,-0.2,1.08,GOOD
1790977292228,589,1948.0,-171.57131958083488,32000.0,106.2,98.0,-1.3,-0.2,1.08,GOOD
1790977292228,590,1973.0,-180.64148780688882,32000.0,106.2,98.0,-1.3,-0.2,1.08,GOOD
1790977292228,591,1974.0,-190.37386756407378,32000.0,106.2,98.0,-1.3,-0.2,1.08,GOOD
1790977292228,592,1961.0,-194.1599820190595,32000.0,106.2,98.0,-1.3,-0.2,1.08,GOOD
1790977292228,593,1954.0,-195.4720679697695,32000.0,106.2,98.0,-1.3,-0.2,1.08,GOOD
1790977292228,594,1975.0,-198.08240440536014,32000.0,106.2,98.0,-1.3,-0.2,1.08,GOOD
1790977292228,595,1969.0,-197.5520075304189,32000.0,106.2,98.0,-1.3,-0.2,1.08,GOOD
1790977292228,596,1972.0,-190.15162625066867,32000.0,106.2,98.0,-1.3,-0.2,1.08,GOOD
1790977292228,597,1981.0,-179.81789259418946,32000.0,106.2,98.0,-1.3,-0.2,1.08,GOOD
1790977292228,598,1965.0,-172.7536024936632,32000.0,106.2,98.0,-1.3,-0.2,1.08,GOOD
1790977292228,599,1950.0,-171.85754944993408,32000.0,106.2,98.0,-1.3,-0.2,1.08,GOOD
1790977292228,600,1958.0,-175.2084511594056,32000.0,106.2,98.0,-1.3,-0.2,1.08,GOOD
1790977292228,601,1861.0,-181.82272389255377,32000.0,106.2,98.0,-1.3,-0.2,1.08,GOOD
1790977292228,602,1985.0,-193.29408216826982,32000.0,106.2,98.0,-1.3,-0.2,1.08,GOOD
1790977292228,603,1979.0,-201.0340936510674,32000.0,106.2,98.0,-1.3,-0.2,1.08,GOOD
1790977292228,604,1991.0,-192.78804097296097,32000.0,106.2,98.0,-1.3,-0.2,1.08,GOOD
1790977292228,605,1984.0,-170.7352674233852,32000.0,106.2,98.0,-1.3,-0.2,1.08,GOOD
1790977292228,606,1976.0,-146.4916997220813,32000.0,106.2,98.0,-1.3,-0.2,1.08,GOOD
1790977292228,607,1954.0,-131.45137988706256,32000.0,106.2,98.0,-1.3,-0.2,1.08,GOOD
1790977292228,608,1978.0,-131.31001023672462,32000.0,106.2,98.0,-1.3,-0.2,1.08,GOOD
1790977292228,609,1969.0,-140.70563241419273,32000.0,106.2,98.0,-1.3,-0.2,1.08,GOOD
1790977292228,610,1973.0,-148.50071881198284,32000.0,106.2,98.0,-1.3,-0.2,1.08,GOOD
1790977292228,611,1968.0,-148.2795576743166,32000.0,106.2,98.0,-1.3,-0.2,1.08,GOOD
1790977292228,612,1931.0,-143.35716303993718,32000.0,106.2,98.0,-1.3,-0.2,1.08,GOOD
1790977292228,613,1937.0,-143.08506221935747,32000.0,106.2,98.0,-1.3,-0.2,1.08,GOOD
1790977292228,614,2001.0,-148.57219463428865,32000.0,106.2,98.0,-1.3,-0.2,1.08,GOOD
1790977292228,615,1992.0,-148.25105711862608,32000.0,106.2,98.0,-1.3,-0.2,1.08,GOOD
1790977292228,616,2018.0,-134.26509240972973,32000.0,106.2,98.0,-1.3,-0.2,1.08,GOOD
1790977292228,617,2005.0,-111.37402448250201,32000.0,106.2,98.0,-1.3,-0.2,1.08,GOOD
1790977292228,618,1985.0,-90.89036754243912,32000.0,106.2,98.0,-1.3,-0.2,1.08,GOOD
1790977292228,619,1987.0,-82.64785385828205,32000.0,106.2,98.0,-1.3,-0.2,1.08,GOOD
1790977292228,620,1991.0,-87.16587987952528,32000.0,106.2,98.0,-1.3,-0.2,1.08,GOOD
1790977292228,621,2003.0,-95.70502924621277,32000.0,106.2,98.0,-1.3,-0.2,1.08,GOOD
1790977292228,622,2001.0,-99.0832969093903,32000.0,106.2,98.0,-1.3,-0.2,1.08,GOOD
1790977292228,623,1995.0,-94.9739527816337,32000.0,106.2,98.0,-1.3,-0.2,1.08,GOOD
1790977292228,624,1978.0,-88.46538820678417,32000.0,106.2,98.0,-1.3,-0.2,1.08,GOOD
1790977292228,625,1989.0,-85.95019739324678,32000.0,106.2,98.0,-1.3,-0.2,1.08,GOOD
1790977294856,626,2004.0,-87.70733477836798,32000.0,106.0,98.0,-1.4,-0.2,1.09,GOOD
1790977294856,627,2004.0,-88.32990852618005,32000.0,106.0,98.0,-1.4,-0.2,1.09,GOOD
1790977294856,628,2027.0,-83.20696873816321,32000.0,106.0,98.0,-1.4,-0.2,1.09,GOOD
1790977294856,629,2038.0,-71.21701029290682,32000.0,106.0,98.0,-1.4,-0.2,1.09,GOOD
1790977294856,630,2018.0,-55.93208419091892,32000.0,106.0,98.0,-1.4,-0.2,1.09,GOOD
1790977294856,631,2005.0,-45.63222775246629,32000.0,106.0,98.0,-1.4,-0.2,1.09,GOOD
1790977294856,632,2005.0,-45.74086271165919,32000.0,106.0,98.0,-1.4,-0.2,1.09,GOOD
1790977294856,633,2013.0,-52.59356082775123,32000.0,106.0,98.0,-1.4,-0.2,1.09,GOOD
1790977294856,634,2010.0,-58.595869389673865,32000.0,106.0,98.0,-1.4,-0.2,1.09,GOOD
1790977294856,635,2039.0,-59.253222668939785,32000.0,106.0,98.0,-1.4,-0.2,1.09,GOOD
1790977294856,636,2069.0,-52.148577254616264,32000.0,106.0,98.0,-1.4,-0.2,1.09,GOOD
1790977294856,637,2083.0,-35.67959425139726,32000.0,106.0,98.0,-1.4,-0.2,1.09,GOOD
1790977294856,638,2075.0,-13.072979368889351,32000.0,106.0,98.0,-1.4,-0.2,1.09,GOOD
1790977294856,639,1939.0,1.9758635560028868,32000.0,106.0,98.0,-1.4,-0.2,1.09,GOOD
1790977294856,640,1914.0,-10.388245584488757,32000.0,106.0,98.0,-1.4,-0.2,1.09,GOOD
1790977294856,641,1893.0,-54.549635306047115,32000.0,106.0,98.0,-1.4,-0.2,1.09,GOOD
1790977294856,642,1913.0,-110.39361629023811,32000.0,106.0,98.0,-1.4,-0.2,1.09,GOOD
1790977294856,643,1844.0,-154.97077263317559,32000.0,106.0,98.0,-1.4,-0.2,1.09,GOOD
1790977294856,644,1727.0,-186.37288879184416,32000.0,106.0,98.0,-1.4,-0.2,1.09,GOOD
1790977294856,645,1712.0,-219.35641922933306,32000.0,106.0,98.0,-1.4,-0.2,1.09,GOOD
1790977294856,646,1745.0,-258.6039058176359,32000.0,106.0,98.0,-1.4,-0.2,1.09,GOOD
1790977294856,647,1670.0,-294.87156584884656,32000.0,106.0,98.0,-1.4,-0.2,1.09,GOOD
1790977294856,648,1785.0,-319.6372127637225,32000.0,106.0,98.0,-1.4,-0.2,1.09,GOOD
1790977294856,649,2005.0,-313.0681005803623,32000.0,106.0,98.0,-1.4,-0.2,1.09,GOOD
1790977294856,650,2020.0,-248.82593738348626,32000.0,106.0,98.0,-1.4,-0.2,1.09,GOOD
1790977294857,651,2050.0,-138.40794660171815,32000.0,106.0,98.0,-1.4,-0.2,1.09,GOOD
1790977294857,652,2048.0,-30.199320903099046,32000.0,106.0,98.0,-1.4,-0.2,1.09,GOOD
1790977294857,653,2015.0,37.16499317495333,32000.0,106.0,98.0,-1.4,-0.2,1.09,GOOD
1790977294857,654,2015.0,55.3803001949236,32000.0,106.0,98.0,-1.4,-0.2,1.09,GOOD
1790977294857,655,1996.0,38.8369653299162,32000.0,106.0,98.0,-1.4,-0.2,1.09,GOOD
1790977294857,656,1986.0,9.163274086804474,32000.0,106.0,98.0,-1.4,-0.2,1.09,GOOD
1790977294857,657,2030.0,-15.382543398191116,32000.0,106.0,98.0,-1.4,-0.2,1.09,GOOD
1790977294857,658,2007.0,-23.277463822567565,32000.0,106.0,98.0,-1.4,-0.2,1.09,GOOD
1790977294857,659,2031.0,-14.902006593370347,32000.0,106.0,98.0,-1.4,-0.2,1.09,GOOD
1790977294857,660,2107.0,3.2719388027828646,32000.0,106.0,98.0,-1.4,-0.2,1.09,GOOD
1790977294857,661,2269.0,35.59523370810018,32000.0,106.0,98.0,-1.4,-0.2,1.09,GOOD
1790977294857,662,2442.0,99.30987395165667,32000.0,106.0,98.0,-1.4,-0.2,1.09,GOOD
1790977294857,663,2697.0,211.38838407269762,32000.0,106.0,98.0,-1.4,-0.2,1.09,GOOD
1790977294857,664,2763.0,371.5914469375505,32000.0,106.0,98.0,-1.4,-0.2,1.09,GOOD
1790977294857,665,2669.0,542.8433125406791,32000.0,106.0,98.0,-1.4,-0.2,1.09,GOOD
1790977294857,666,2296.0,649.0139428078824,32000.0,106.0,98.0,-1.4,-0.2,1.09,GOOD
1790977294857,667,2279.0,624.1332023674111,32000.0,106.0,98.0,-1.4,-0.2,1.09,GOOD
1790977294857,668,2040.0,473.8477279006273,32000.0,106.0,98.0,-1.4,-0.2,1.09,GOOD
1790977294857,669,1874.0,257.04824032797956,32000.0,106.0,98.0,-1.4,-0.2,1.09,GOOD
1790977294857,670,1768.0,31.234626184259945,32000.0,106.0,98.0,-1.4,-0.2,1.09,GOOD
1790977294857,671,1729.0,-157.41274471768736,32000.0,106.0,98.0,-1.4,-0.2,1.09,GOOD
1790977294857,672,1777.0,-276.5771936947706,32000.0,106.0,98.0,-1.4,-0.2,1.09,GOOD
1790977294857,673,1872.0,-318.0146182948411,32000.0,106.0,98.0,-1.4,-0.2,1.09,GOOD
1790977294857,674,2020.0,-291.29998285768863,32000.0,106.0,98.0,-1.4,-0.2,1.09,GOOD
1790977294857,675,2062.0,-212.94345809354326,32000.0,106.0,98.0,-1.4,-0.2,1.09,GOOD
1790977295063,676,2080.0,-107.55072658074636,-245.0,102.4,98.0,-1.5,-0.2,1.08,GOOD
1790977295063,677,2024.0,-10.322357791706763,-239.0,102.4,98.0,-1.5,-0.2,1.08,GOOD
1790977295063,678,1897.0,39.9550224988267,-240.0,102.4,98.0,-1.5,-0.2,1.08,GOOD
1790977295063,679,1965.0,23.479696224181836,-240.0,102.4,98.0,-1.5,-0.2,1.08,GOOD
1790977295063,680,1986.0,-34.34077509806729,-239.0,102.4,98.0,-1.5,-0.2,1.08,GOOD
1790977295063,681,1850.0,-87.76435290876451,-240.0,102.4,98.0,-1.5,-0.2,1.08,GOOD
1790977295063,682,2187.0,-107.38399167375619,-243.0,102.4,98.0,-1.5,-0.2,1.08,GOOD
1790977295063,683,2176.0,-72.52449000383315,-242.0,102.4,98.0,-1.5,-0.2,1.08,GOOD
1790977295063,684,2194.0,10.791115383182987,-240.0,102.4,98.0,-1.5,-0.2,1.08,GOOD
1790977295063,685,2249.0,100.48863027321073,-235.0,102.4,98.0,-1.5,-0.2,1.08,GOOD
1790977295063,686,2242.0,166.78645566271473,-234.0,102.4,98.0,-1.5,-0.2,1.08,GOOD
1790977295063,687,2277.0,208.12837336037444,-226.0,102.4,98.0,-1.5,-0.2,1.08,GOOD
1790977295063,688,2306.0,230.51022851142193,-224.0,102.4,98.0,-1.5,-0.2,1.08,GOOD
1790977295063,689,2201.0,235.42726358826573,-219.0,102.4,98.0,-1.5,-0.2,1.08,GOOD
1790977295063,690,2339.0,224.73740611301514,-221.0,102.4,98.0,-1.5,-0.2,1.08,GOOD
1790977295063,691,2332.0,217.0046275559782,-217.0,102.4,98.0,-1.5,-0.2,1.08,GOOD
1790977295063,692,2320.0,229.5340110866693,-213.0,102.4,98.0,-1.5,-0.2,1.08,GOOD
1790977295063,693,2308.0,251.08898339565687,-207.0,102.4,98.0,-1.5,-0.2,1.08,GOOD
1790977295063,694,2323.0,261.32955305926345,-204.0,102.4,98.0,-1.5,-0.2,1.08,GOOD
1790977295063,695,2316.0,256.8893375713401,-201.0,102.4,98.0,-1.5,-0.2,1.08,GOOD
1790977295063,696,2316.0,247.0507280868521,-200.0,102.4,98.0,-1.5,-0.2,1.08,GOOD
1790977295063,697,2309.0,239.16842550182858,-205.0,102.4,98.0,-1.5,-0.2,1.08,GOOD
1790977295063,698,2300.0,232.95540275718346,-201.0,102.4,98.0,-1.5,-0.2,1.08,GOOD
1790977295063,699,2281.0,224.052961250183,-197.0,102.4,98.0,-1.5,-0.2,1.08,GOOD
1790977295063,700,2247.0,209.2324643947575,-192.0,102.4,98.0,-1.5,-0.2,1.08,GOOD
1790977295064,701,2182.0,186.52925064251457,32000.0,102.4,98.0,-1.5,-0.2,1.08,GOOD
1790977295064,702,2180.0,154.82637317040468,32000.0,102.4,98.0,-1.5,-0.2,1.08,GOOD
1790977295064,703,2156.0,117.75917955202635,32000.0,102.4,98.0,-1.5,-0.2,1.08,GOOD
1790977295064,704,2132.0,81.965904925333,32000.0,102.4,98.0,-1.5,-0.2,1.08,GOOD
1790977295064,705,2066.0,49.587287425502446,32000.0,102.4,98.0,-1.5,-0.2,1.08,GOOD
1790977295064,706,1953.0,14.287450768613798,32000.0,102.4,98.0,-1.5,-0.2,1.08,GOOD
1790977295064,707,1855.0,-36.179211466858376,32000.0,102.4,98.0,-1.5,-0.2,1.08,GOOD
1790977295064,708,1872.0,-105.63154805412586,32000.0,102.4,98.0,-1.5,-0.2,1.08,GOOD
1790977295064,709,1947.0,-174.55884340848473,32000.0,102.4,98.0,-1.5,-0.2,1.08,GOOD
1790977295064,710,2011.0,-210.21127856593506,32000.0,102.4,98.0,-1.5,-0.2,1.08,GOOD
1790977295064,711,2018.0,-195.8380510660031,32000.0,102.4,98.0,-1.5,-0.2,1.08,GOOD
1790977295064,712,1970.0,-147.02585966020942,32000.0,102.4,98.0,-1.5,-0.2,1.08,GOOD
1790977295064,713,1989.0,-98.00112608099704,32000.0,102.4,98.0,-1.5,-0.2,1.08,GOOD
1790977295064,714,1953.0,-74.42285992137955,32000.0,102.4,98.0,-1.5,-0.2,1.08,GOOD
1790977295064,715,1899.0,-83.7888582883258,32000.0,102.4,98.0,-1.5,-0.2,1.08,GOOD
1790977295064,716,1999.0,-114.56234275874436,32000.0,102.4,98.0,-1.5,-0.2,1.08,GOOD
1790977295064,717,1983.0,-137.43676548303915,32000.0,102.4,98.0,-1.5,-0.2,1.08,GOOD
1790977295064,718,1979.0,-133.00335638229473,32000.0,102.4,98.0,-1.5,-0.2,1.08,GOOD
1790977295064,719,1983.0,-111.38943481621212,32000.0,102.4,98.0,-1.5,-0.2,1.08,GOOD
1790977295064,720,1981.0,-92.46351856365816,32000.0,102.4,98.0,-1.5,-0.2,1.08,GOOD
1790977295064,721,1988.0,-84.86012905135391,32000.0,102.4,98.0,-1.5,-0.2,1.08,GOOD
1790977295064,722,1979.0,-85.05942420916162,32000.0,102.4,98.0,-1.5,-0.2,1.08,GOOD
1790977295064,723,1997.0,-85.60580331899645,32000.0,102.4,98.0,-1.5,-0.2,1.08,GOOD
1790977295064,724,1989.0,-82.58449503523315,32000.0,102.4,98.0,-1.5,-0.2,1.08,GOOD
1790977295064,725,1981.0,-78.29703036730967,32000.0,102.4,98.0,-1.5,-0.2,1.08,GOOD
1790977297904,726,1996.0,-76.63250570941541,-163.0,99.3,98.0,-1.4,-0.2,1.08,GOOD
1790977297904,727,1996.0,-76.1938487278031,-159.0,99.3,98.0,-1.4,-0.2,1.08,GOOD
1790977297904,728,1975.0,-73.9093369392934,-155.0,99.3,98.0,-1.4,-0.2,1.08,GOOD
1790977297904,729,1976.0,-71.72347975988592,-154.0,99.3,98.0,-1.4,-0.2,1.08,GOOD
1790977297904,730,1982.0,-72.77180768852386,-150.0,99.3,98.0,-1.4,-0.2,1.08,GOOD
1790977297904,731,1999.0,-75.39263831725583,-153.0,99.3,98.0,-1.4,-0.2,1.08,GOOD
1790977297904,732,1998.0,-74.89140844759751,-150.0,99.3,98.0,-1.4,-0.2,1.08,GOOD
1790977297904,733,1997.0,-69.11097702457721,-146.0,99.3,98.0,-1.4,-0.2,1.08,GOOD
1790977297904,734,1981.0,-61.059488851343616,-145.0,99.3,98.0,-1.4,-0.2,1.08,GOOD
1790977297904,735,1952.0,-57.572217422666746,-138.0,99.3,98.0,-1.4,-0.2,1.08,GOOD
1790977297904,736,1986.0,-62.86807085231189,-136.0,99.3,98.0,-1.4,-0.2,1.08,GOOD
1790977297904,737,1987.0,-71.68519962688933,-135.0,99.3,98.0,-1.4,-0.2,1.08,GOOD
1790977297904,738,2003.0,-74.45975387834554,-135.0,99.3,98.0,-1.4,-0.2,1.08,GOOD
1790977297904,739,2018.0,-66.77387427201091,-136.0,99.3,98.0,-1.4,-0.2,1.08,GOOD
1790977297904,740,2018.0,-50.98867100034671,-134.0,99.3,98.0,-1.4,-0.2,1.08,GOOD
1790977297904,741,1934.0,-37.615060444277546,-133.0,99.3,98.0,-1.4,-0.2,1.08,GOOD
1790977297904,742,1868.0,-43.6956034121671,-132.0,99.3,98.0,-1.4,-0.2,1.08,GOOD
1790977297904,743,1853.0,-77.3271301108962,-133.0,99.3,98.0,-1.4,-0.2,1.08,GOOD
1790977297904,744,1859.0,-125.52902516182985,-131.0,99.3,98.0,-1.4,-0.2,1.08,GOOD
1790977297904,745,1839.0,-166.91310743905888,-130.0,99.3,98.0,-1.4,-0.2,1.08,GOOD
1790977297904,746,1964.0,-185.90934266957146,-129.0,99.3,98.0,-1.4,-0.2,1.08,GOOD
1790977297904,747,1995.0,-171.26295608486237,-129.0,99.3,98.0,-1.4,-0.2,1.08,GOOD
1790977297904,748,2025.0,-123.3904704959304,-127.0,99.3,98.0,-1.4,-0.2,1.08,GOOD
1790977297904,749,2000.0,-62.769431571624565,-126.0,99.3,98.0,-1.4,-0.2,1.08,GOOD
1790977297904,750,2029.0,-15.001984651815489,-125.0,99.3,98.0,-1.4,-0.2,1.08,GOOD
1790977297904,751,2034.0,9.022519625852725,32000.0,99.3,98.0,-1.4,-0.2,1.08,GOOD
1790977297904,752,2010.0,13.402307732034878,32000.0,99.3,98.0,-1.4,-0.2,1.08,GOOD
1790977297904,753,2009.0,6.20150965815106,32000.0,99.3,98.0,-1.4,-0.2,1.08,GOOD
1790977297904,754,1966.0,-5.843436949809437,32000.0,99.3,98.0,-1.4,-0.2,1.08,GOOD
1790977297904,755,2048.0,-16.22393855151715,32000.0,99.3,98.0,-1.4,-0.2,1.08,GOOD
1790977297904,756,2046.0,-17.04353874716896,32000.0,99.3,98.0,-1.4,-0.2,1.08,GOOD
1790977297904,757,2022.0,-7.103326961018985,32000.0,99.3,98.0,-1.4,-0.2,1.08,GOOD
1790977297904,758,2029.0,4.517309912770113,32000.0,99.3,98.0,-1.4,-0.2,1.08,GOOD
1790977297904,759,2046.0,12.597125905151726,32000.0,99.3,98.0,-1.4,-0.2,1.08,GOOD
1790977297904,760,2058.0,20.072205160927478,32000.0,99.3,98.0,-1.4,-0.2,1.08,GOOD
1790977297904,761,2043.0,27.16224763898562,32000.0,99.3,98.0,-1.4,-0.2,1.08,GOOD
1790977297904,762,2011.0,28.184896248202456,32000.0,99.3,98.0,-1.4,-0.2,1.08,GOOD
1790977297904,763,1947.0,17.532935943567022,32000.0,99.3,98.0,-1.4,-0.2,1.08,GOOD
1790977297904,764,2053.0,-0.8435428910086362,32000.0,99.3,98.0,-1.4,-0.2,1.08,GOOD
1790977297904,765,2051.0,-11.029705394594295,32000.0,99.3,98.0,-1.4,-0.2,1.08,GOOD
1790977297904,766,2067.0,-3.6503712035007556,32000.0,99.3,98.0,-1.4,-0.2,1.08,GOOD
1790977297904,767,2073.0,14.281332654243602,32000.0,99.3,98.0,-1.4,-0.2,1.08,GOOD
1790977297904,768,2086.0,34.75007228587186,32000.0,99.3,98.0,-1.4,-0.2,1.08,GOOD
1790977297904,769,2072.0,54.490491322944635,32000.0,99.3,98.0,-1.4,-0.2,1.08,GOOD
1790977297904,770,2011.0,65.16866540636397,32000.0,99.3,98.0,-1.4,-0.2,1.08,GOOD
1790977297904,771,1895.0,50.761645829158645,32000.0,99.3,98.0,-1.4,-0.2,1.08,GOOD
1790977297904,772,1927.0,4.626840482453483,32000.0,99.3,98.0,-1.4,-0.2,1.08,GOOD
1790977297904,773,1929.0,-52.795815768660475,32000.0,99.3,98.0,-1.4,-0.2,1.08,GOOD
1790977297904,774,1960.0,-90.67528307455026,32000.0,99.3,98.0,-1.4,-0.2,1.08,GOOD
1790977297904,775,1995.0,-96.19399907389831,32000.0,99.3,98.0,-1.4,-0.2,1.08,GOOD
1790977297905,776,2046.0,-74.35541140387242,32000.0,99.3,98.0,-1.4,-0.2,1.08,GOOD
1790977297905,777,1977.0,-38.51107569590488,32000.0,99.3,98.0,-1.4,-0.2,1.08,GOOD
1790977297905,778,1929.0,-10.157001276053407,32000.0,99.3,98.0,-1.4,-0.2,1.08,GOOD
1790977297905,779,1937.0,-7.4309323932528235,32000.0,99.3,98.0,-1.4,-0.2,1.08,GOOD
1790977297905,780,2004.0,-25.849016238230636,32000.0,99.3,98.0,-1.4,-0.2,1.08,GOOD
1790977297905,781,2009.0,-43.02060496931509,32000.0,99.3,98.0,-1.4,-0.2,1.08,GOOD
1790977297905,782,2045.0,-41.42381344271848,32000.0,99.3,98.0,-1.4,-0.2,1.08,GOOD
1790977297905,783,2034.0,-18.962802136688765,32000.0,99.3,98.0,-1.4,-0.2,1.08,GOOD
1790977297905,784,2019.0,12.583310765157416,32000.0,99.3,98.0,-1.4,-0.2,1.08,GOOD
1790977297905,785,2021.0,34.77467130317093,32000.0,99.3,98.0,-1.4,-0.2,1.08,GOOD
1790977297905,786,2047.0,38.175496081782256,32000.0,99.3,98.0,-1.4,-0.2,1.08,GOOD
1790977297905,787,2106.0,32.86871896462594,32000.0,99.3,98.0,-1.4,-0.2,1.08,GOOD
1790977297905,788,2130.0,39.153094313632856,32000.0,99.3,98.0,-1.4,-0.2,1.08,GOOD
1790977297905,789,2131.0,65.7153736716181,32000.0,99.3,98.0,-1.4,-0.2,1.08,GOOD
1790977297905,790,2128.0,100.4184860208072,32000.0,99.3,98.0,-1.4,-0.2,1.08,GOOD
1790977297905,791,2211.0,127.71168130685948,32000.0,99.3,98.0,-1.4,-0.2,1.08,GOOD
1790977297905,792,2407.0,154.79784096145875,32000.0,99.3,98.0,-1.4,-0.2,1.08,GOOD
1790977297905,793,2656.0,215.18945707224503,32000.0,99.3,98.0,-1.4,-0.2,1.08,GOOD
1790977297905,794,2794.0,337.2434076211267,32000.0,99.3,98.0,-1.4,-0.2,1.08,GOOD
1790977297905,795,2765.0,504.5107408583556,32000.0,99.3,98.0,-1.4,-0.2,1.08,GOOD
1790977297905,796,2636.0,653.1482387978788,32000.0,99.3,98.0,-1.4,-0.2,1.08,GOOD
1790977297905,797,2148.0,701.373542990181,32000.0,99.3,98.0,-1.4,-0.2,1.08,GOOD
1790977297905,798,2142.0,597.2148191923668,32000.0,99.3,98.0,-1.4,-0.2,1.08,GOOD
1790977297905,799,1957.0,372.1123270041218,32000.0,99.3,98.0,-1.4,-0.2,1.08,GOOD
1790977297905,800,1823.0,115.39219203949439,32000.0,99.3,98.0,-1.4,-0.2,1.08,GOOD
1790977300746,801,1716.0,-103.89115211064737,-63.0,99.5,98.0,-1.5,-0.2,1.09,GOOD
1790977300746,802,1806.0,-251.7555701598774,-62.0,99.5,98.0,-1.5,-0.2,1.09,GOOD
1790977300746,803,1883.0,-311.5562115030597,-62.0,99.5,98.0,-1.5,-0.2,1.09,GOOD
1790977300746,804,1975.0,-290.233111587836,-66.0,99.5,98.0,-1.5,-0.2,1.09,GOOD
1790977300746,805,2077.0,-217.01760785953556,-63.0,99.5,98.0,-1.5,-0.2,1.09,GOOD
1790977300746,806,2096.0,-121.77543095871405,-63.0,99.5,98.0,-1.5,-0.2,1.09,GOOD
1790977300746,807,2067.0,-28.744703611808117,-63.0,99.5,98.0,-1.5,-0.2,1.09,GOOD
1790977300746,808,1992.0,34.59533912522599,-63.0,99.5,98.0,-1.5,-0.2,1.09,GOOD
1790977300746,809,1878.0,41.392398047308966,-58.0,99.5,98.0,-1.5,-0.2,1.09,GOOD
1790977300746,810,2013.0,-8.498587244447865,-58.0,99.5,98.0,-1.5,-0.2,1.09,GOOD
1790977300746,811,1993.0,-71.98557309511777,-58.0,99.5,98.0,-1.5,-0.2,1.09,GOOD
1790977300746,812,1994.0,-101.97386496764021,-59.0,99.5,98.0,-1.5,-0.2,1.09,GOOD
1790977300746,813,2013.0,-90.78933157149572,-59.0,99.5,98.0,-1.5,-0.2,1.09,GOOD
1790977300746,814,1976.0,-61.32734679302577,-60.0,99.5,98.0,-1.5,-0.2,1.09,GOOD
1790977300746,815,1930.0,-43.09976147634346,-62.0,99.5,98.0,-1.5,-0.2,1.09,GOOD
1790977300746,816,1985.0,-50.13674686606016,-60.0,99.5,98.0,-1.5,-0.2,1.09,GOOD
1790977300746,817,1979.0,-68.35417522369593,-60.0,99.5,98.0,-1.5,-0.2,1.09,GOOD
1790977300746,818,1943.0,-78.19927561570796,-59.0,99.5,98.0,-1.5,-0.2,1.09,GOOD
1790977300746,819,1980.0,-77.9246657489002,-55.0,99.5,98.0,-1.5,-0.2,1.09,GOOD
1790977300746,820,1903.0,-76.58187804915329,-60.0,99.5,98.0,-1.5,-0.2,1.09,GOOD
1790977300746,821,1820.0,-86.87795209353641,-61.0,99.5,98.0,-1.5,-0.2,1.09,GOOD
1790977300746,822,1614.0,-125.82214502803527,-59.0,99.5,98.0,-1.5,-0.2,1.09,GOOD
1790977300746,823,1539.0,-205.3833323126742,-59.0,99.5,98.0,-1.5,-0.2,1.09,GOOD
1790977300746,824,1538.0,-314.17804039466364,-56.0,99.5,98.0,-1.5,-0.2,1.09,GOOD
1790977300746,825,1533.0,-417.2872399869391,-55.0,99.5,98.0,-1.5,-0.2,1.09,GOOD
1790977300747,826,1647.0,-479.1879040547284,32000.0,99.5,98.0,-1.5,-0.2,1.09,GOOD
1790977300747,827,1759.0,-476.59829873497387,32000.0,99.5,98.0,-1.5,-0.2,1.09,GOOD
1790977300747,828,1833.0,-405.9929643185505,32000.0,99.5,98.0,-1.5,-0.2,1.09,GOOD
1790977300747,829,1803.0,-296.32283450879936,32000.0,99.5,98.0,-1.5,-0.2,1.09,GOOD
1790977300747,830,1695.0,-202.2772537213238,32000.0,99.5,98.0,-1.5,-0.2,1.09,GOOD
1790977300747,831,1738.0,-166.43649192272125,32000.0,99.5,98.0,-1.5,-0.2,1.09,GOOD
1790977300747,832,1746.0,-183.45365638457355,32000.0,99.5,98.0,-1.5,-0.2,1.09,GOOD
1790977300747,833,1749.0,-215.40962878474963,32000.0,99.5,98.0,-1.5,-0.2,1.09,GOOD
1790977300747,834,1858.0,-229.60852775228244,32000.0,99.5,98.0,-1.5,-0.2,1.09,GOOD
1790977300747,835,1957.0,-206.53358389443588,32000.0,99.5,98.0,-1.5,-0.2,1.09,GOOD
1790977300747,836,2073.0,-139.23866443280167,32000.0,99.5,98.0,-1.5,-0.2,1.09,GOOD
1790977300747,837,2112.0,-39.993649554130556,32000.0,99.5,98.0,-1.5,-0.2,1.09,GOOD
1790977300747,838,2161.0,64.20291675803063,32000.0,99.5,98.0,-1.5,-0.2,1.09,GOOD
1790977300747,839,2162.0,148.02414311222157,32000.0,99.5,98.0,-1.5,-0.2,1.09,GOOD
1790977300747,840,2163.0,199.14794222350002,32000.0,99.5,98.0,-1.5,-0.2,1.09,GOOD
1790977300747,841,2155.0,217.86916423392012,32000.0,99.5,98.0,-1.5,-0.2,1.09,GOOD
1790977300747,842,2124.0,211.83986644806566,32000.0,99.5,98.0,-1.5,-0.2,1.09,GOOD
1790977300747,843,2066.0,189.10780450627374,32000.0,99.5,98.0,-1.5,-0.2,1.09,GOOD
1790977300747,844,2171.0,160.4256771851671,32000.0,99.5,98.0,-1.5,-0.2,1.09,GOOD
1790977300747,845,2185.0,145.15227435196823,32000.0,99.5,98.0,-1.5,-0.2,1.09,GOOD
1790977300747,846,2192.0,154.8173289022157,32000.0,99.5,98.0,-1.5,-0.2,1.09,GOOD
1790977300747,847,2124.0,176.6068741809718,32000.0,99.5,98.0,-1.5,-0.2,1.09,GOOD
1790977300747,848,2089.0,186.7979372218152,32000.0,99.5,98.0,-1.5,-0.2,1.09,GOOD
1790977300747,849,2129.0,175.55568914499247,32000.0,99.5,98.0,-1.5,-0.2,1.09,GOOD
1790977300747,850,2123.0,153.43440263705202,32000.0,99.5,98.0,-1.5,-0.2,1.09,GOOD
1790977301040,851,2150.0,135.26554898918124,-77.0,96.0,98.0,-1.4,-0.2,1.08,GOOD
1790977301040,852,2166.0,129.31523876541647,-75.0,96.0,98.0,-1.4,-0.2,1.08,GOOD
1790977301040,853,2188.0,139.24756665234756,-71.0,96.0,98.0,-1.4,-0.2,1.08,GOOD
1790977301040,854,2162.0,160.8161334159907,-71.0,96.0,98.0,-1.4,-0.2,1.08,GOOD
1790977301040,855,2154.0,179.36798606881536,-70.0,96.0,98.0,-1.4,-0.2,1.08,GOOD
1790977301040,856,2142.0,181.12483431170762,-71.0,96.0,98.0,-1.4,-0.2,1.08,GOOD
1790977301040,857,2052.0,162.71352378503332,-67.0,96.0,98.0,-1.4,-0.2,1.08,GOOD
1790977301040,858,2168.0,133.01692416255722,-63.0,96.0,98.0,-1.4,-0.2,1.08,GOOD
1790977301040,859,2177.0,113.72220595705355,-62.0,96.0,98.0,-1.4,-0.2,1.08,GOOD
1790977301040,860,2177.0,119.15961547199718,-61.0,96.0,98.0,-1.4,-0.2,1.08,GOOD
1790977301040,861,2177.0,139.16182552164292,-52.0,96.0,98.0,-1.4,-0.2,1.08,GOOD
1790977301040,862,2164.0,156.73794213041776,-49.0,96.0,98.0,-1.4,-0.2,1.08,GOOD
1790977301040,863,2148.0,164.14542272398273,-48.0,96.0,98.0,-1.4,-0.2,1.08,GOOD
1790977301040,864,2181.0,161.4836017030509,-46.0,96.0,98.0,-1.4,-0.2,1.08,GOOD
1790977301040,865,2160.0,153.18569856083118,-45.0,96.0,98.0,-1.4,-0.2,1.08,GOOD
1790977301040,866,2174.0,143.86841391907473,-40.0,96.0,98.0,-1.4,-0.2,1.08,GOOD
1790977301040,867,2170.0,137.67983459117397,-36.0,96.0,98.0,-1.4,-0.2,1.08,GOOD
1790977301040,868,2159.0,137.27284950247062,-32.0,96.0,98.0,-1.4,-0.2,1.08,GOOD
1790977301040,869,2172.0,139.81041106937693,-30.0,96.0,98.0,-1.4,-0.2,1.08,GOOD
1790977301040,870,2190.0,140.82490199510727,-26.0,96.0,98.0,-1.4,-0.2,1.08,GOOD
1790977301040,871,2206.0,140.97138081067192,-26.0,96.0,98.0,-1.4,-0.2,1.08,GOOD
1790977301040,872,2139.0,141.89369188524356,-23.0,96.0,98.0,-1.4,-0.2,1.08,GOOD
1790977301040,873,1744.0,123.73986885819997,-18.0,96.0,98.0,-1.4,-0.2,1.08,GOOD
1790977301040,874,2056.0,59.833671847596094,-15.0,96.0,98.0,-1.4,-0.2,1.08,GOOD
1790977301040,875,1873.0,-28.911484422111723,-13.0,96.0,98.0,-1.4,-0.2,1.08,GOOD
1790977301041,876,1873.0,-102.45921567958595,32000.0,96.0,98.0,-1.4,-0.2,1.08,GOOD
1790977301041,877,1810.0,-153.77742416024702,32000.0,96.0,98.0,-1.4,-0.2,1.08,GOOD
1790977301041,878,1794.0,-187.04488629406396,32000.0,96.0,98.0,-1.4,-0.2,1.08,GOOD
1790977301041,879,1863.0,-201.17409720618133,32000.0,96.0,98.0,-1.4,-0.2,1.08,GOOD
1790977301041,880,1931.0,-195.56623033538463,32000.0,96.0,98.0,-1.4,-0.2,1.08,GOOD
1790977301041,881,1992.0,-171.03710833457063,32000.0,96.0,98.0,-1.4,-0.2,1.08,GOOD
1790977301041,882,1991.0,-130.35209354384307,32000.0,96.0,98.0,-1.4,-0.2,1.08,GOOD
1790977301041,883,1928.0,-82.1582914496929,32000.0,96.0,98.0,-1.4,-0.2,1.08,GOOD
1790977301041,884,1774.0,-50.81582093619301,32000.0,96.0,98.0,-1.4,-0.2,1.08,GOOD
1790977301041,885,1682.0,-70.3262189569009,32000.0,96.0,98.0,-1.4,-0.2,1.08,GOOD
1790977301041,886,1772.0,-146.6988012562786,32000.0,96.0,98.0,-1.4,-0.2,1.08,GOOD
1790977301041,887,1773.0,-236.02237994408188,32000.0,96.0,98.0,-1.4,-0.2,1.08,GOOD
1790977301041,888,2028.0,-275.2019580271639,32000.0,96.0,98.0,-1.4,-0.2,1.08,GOOD
1790977301041,889,2186.0,-221.58402731024816,32000.0,96.0,98.0,-1.4,-0.2,1.08,GOOD
1790977301041,890,2420.0,-74.61541852779276,32000.0,96.0,98.0,-1.4,-0.2,1.08,GOOD
1790977301041,891,2569.0,127.0423844685182,32000.0,96.0,98.0,-1.4,-0.2,1.08,GOOD
1790977301041,892,2013.0,308.356839411675,32000.0,96.0,98.0,-1.4,-0.2,1.08,GOOD
1790977301041,893,1958.0,370.71642369811855,32000.0,96.0,98.0,-1.4,-0.2,1.08,GOOD
1790977301041,894,1942.0,281.4584760619201,32000.0,96.0,98.0,-1.4,-0.2,1.08,GOOD
1790977301041,895,1943.0,113.8285845581545,32000.0,96.0,98.0,-1.4,-0.2,1.08,GOOD
1790977301041,896,1854.0,-44.05145371760881,32000.0,96.0,98.0,-1.4,-0.2,1.08,GOOD
1790977301041,897,1841.0,-150.35352767284996,32000.0,96.0,98.0,-1.4,-0.2,1.08,GOOD
1790977301041,898,1908.0,-190.88389525050667,32000.0,96.0,98.0,-1.4,-0.2,1.08,GOOD
1790977301041,899,1976.0,-166.71169404867723,32000.0,96.0,98.0,-1.4,-0.2,1.08,GOOD
1790977301041,900,2063.0,-103.43085392669869,32000.0,96.0,98.0,-1.4,-0.2,1.08,GOOD
1790977301041,901,2006.0,-41.07892364814551,32000.0,96.0,98.0,-1.4,-0.2,1.08,GOOD
1790977301041,902,2064.0,-2.3055625271379334,32000.0,96.0,98.0,-1.4,-0.2,1.08,GOOD
1790977301041,903,2075.0,23.741234281710426,32000.0,96.0,98.0,-1.4,-0.2,1.08,GOOD
1790977301041,904,2137.0,56.43948917714661,32000.0,96.0,98.0,-1.4,-0.2,1.08,GOOD
1790977301041,905,2179.0,93.4583110244583,32000.0,96.0,98.0,-1.4,-0.2,1.08,GOOD
1790977301041,906,2081.0,116.25478361891113,32000.0,96.0,98.0,-1.4,-0.2,1.08,GOOD
1790977301041,907,2093.0,114.54609476370335,32000.0,96.0,98.0,-1.4,-0.2,1.08,GOOD
1790977301041,908,2044.0,99.60971753587131,32000.0,96.0,98.0,-1.4,-0.2,1.08,GOOD
1790977301041,909,2037.0,85.15301529053238,32000.0,96.0,98.0,-1.4,-0.2,1.08,GOOD
1790977301041,910,2089.0,68.56366969884004,32000.0,96.0,98.0,-1.4,-0.2,1.08,GOOD
1790977301041,911,2107.0,48.39652043571032,32000.0,96.0,98.0,-1.4,-0.2,1.08,GOOD
1790977301041,912,2135.0,39.15476554070102,32000.0,96.0,98.0,-1.4,-0.2,1.08,GOOD
1790977301041,913,2156.0,57.34713873923566,32000.0,96.0,98.0,-1.4,-0.2,1.08,GOOD
1790977301041,914,2163.0,99.41197522073443,32000.0,96.0,98.0,-1.4,-0.2,1.08,GOOD
1790977301041,915,2146.0,138.10598792250005,32000.0,96.0,98.0,-1.4,-0.2,1.08,GOOD
1790977301041,916,2104.0,146.36769231151783,32000.0,96.0,98.0,-1.4,-0.2,1.08,GOOD
1790977301041,917,2207.0,127.97998939514102,32000.0,96.0,98.0,-1.4,-0.2,1.08,GOOD
1790977301041,918,2136.0,113.74119722694066,32000.0,96.0,98.0,-1.4,-0.2,1.08,GOOD
1790977301041,919,2185.0,119.85533457894515,32000.0,96.0,98.0,-1.4,-0.2,1.08,GOOD
1790977301041,920,2178.0,133.7967339134658,32000.0,96.0,98.0,-1.4,-0.2,1.08,GOOD
1790977301041,921,2211.0,141.44354733266863,32000.0,96.0,98.0,-1.4,-0.2,1.08,GOOD
1790977301041,922,2230.0,145.0331732469379,32000.0,96.0,98.0,-1.4,-0.2,1.08,GOOD
1790977301041,923,2211.0,154.6909796685925,32000.0,96.0,98.0,-1.4,-0.2,1.08,GOOD
1790977301041,924,2230.0,170.66106960046523,32000.0,96.0,98.0,-1.4,-0.2,1.08,GOOD
1790977301041,925,2229.0,182.63446031448746,32000.0,96.0,98.0,-1.4,-0.2,1.08,GOOD
1790977301200,926,2186.0,181.59002862835632,32000.0,96.0,98.0,-1.4,-0.3,1.08,GOOD
1790977301200,927,2220.0,168.06672135553342,32000.0,96.0,98.0,-1.4,-0.3,1.08,GOOD
1790977301200,928,2208.0,153.77310730714885,32000.0,96.0,98.0,-1.4,-0.3,1.08,GOOD
1790977301200,929,2215.0,148.43398330858292,32000.0,96.0,98.0,-1.4,-0.3,1.08,GOOD
1790977301200,930,2230.0,149.58879341685758,32000.0,96.0,98.0,-1.4,-0.3,1.08,GOOD
1790977301200,931,2223.0,151.1002421778976,32000.0,96.0,98.0,-1.4,-0.3,1.08,GOOD
1790977301200,932,2220.0,151.06672543065542,32000.0,96.0,98.0,-1.4,-0.3,1.08,GOOD
1790977301200,933,2185.0,149.24122943112258,32000.0,96.0,98.0,-1.4,-0.3,1.08,GOOD
1790977301200,934,2245.0,145.3772933120025,32000.0,96.0,98.0,-1.4,-0.3,1.08,GOOD
1790977301200,935,2210.0,141.27471241047596,32000.0,96.0,98.0,-1.4,-0.3,1.08,GOOD
1790977301200,936,2244.0,138.51502665461499,32000.0,96.0,98.0,-1.4,-0.3,1.08,GOOD
1790977301200,937,2213.0,137.36638925473954,32000.0,96.0,98.0,-1.4,-0.3,1.08,GOOD
1790977301200,938,2173.0,135.70683630254894,32000.0,96.0,98.0,-1.4,-0.3,1.08,GOOD
1790977301200,939,2022.0,121.4692194890645,32000.0,96.0,98.0,-1.4,-0.3,1.08,GOOD
1790977301200,940,1803.0,70.5632873545974,32000.0,96.0,98.0,-1.4,-0.3,1.08,GOOD
1790977301200,941,1622.0,-38.10336091760796,32000.0,96.0,98.0,-1.4,-0.3,1.08,GOOD
1790977301200,942,1842.0,-185.8738069291727,32000.0,96.0,98.0,-1.4,-0.3,1.08,GOOD
1790977301200,943,2392.0,-283.70335199115965,32000.0,96.0,98.0,-1.4,-0.3,1.08,GOOD
1790977301200,944,2358.0,-233.8179731993199,32000.0,96.0,98.0,-1.4,-0.3,1.08,GOOD
1790977301200,945,2282.0,-51.56727024455458,32000.0,96.0,98.0,-1.4,-0.3,1.08,GOOD
1790977301200,946,2301.0,147.83336912556575,32000.0,96.0,98.0,-1.4,-0.3,1.08,GOOD
1790977301200,947,2201.0,270.79633431775335,32000.0,96.0,98.0,-1.4,-0.3,1.08,GOOD
1790977301200,948,2131.0,284.392271250864,32000.0,96.0,98.0,-1.4,-0.3,1.08,GOOD
1790977301200,949,2135.0,202.44981384845983,32000.0,96.0,98.0,-1.4,-0.3,1.08,GOOD
1790977301200,950,2164.0,86.70346028446963,32000.0,96.0,98.0,-1.4,-0.3,1.08,GOOD
1790977301201,951,2168.0,13.063797015605399,32000.0,96.0,98.0,-1.4,-0.3,1.08,GOOD
1790977301201,952,2069.0,6.892053205153735,32000.0,96.0,98.0,-1.4,-0.3,1.08,GOOD
1790977301201,953,2035.0,25.19871959994947,32000.0,96.0,98.0,-1.4,-0.3,1.08,GOOD
1790977301201,954,1962.0,11.910639815713516,32000.0,96.0,98.0,-1.4,-0.3,1.08,GOOD
1790977301201,955,2042.0,-40.266256081333566,32000.0,96.0,98.0,-1.4,-0.3,1.08,GOOD
1790977301201,956,2047.0,-88.87843865932555,32000.0,96.0,98.0,-1.4,-0.3,1.08,GOOD
1790977301201,957,2027.0,-98.30395723590277,32000.0,96.0,98.0,-1.4,-0.3,1.08,GOOD
1790977301201,958,2035.0,-79.43468356261472,32000.0,96.0,98.0,-1.4,-0.3,1.08,GOOD
1790977301201,959,1995.0,-65.17743158666615,32000.0,96.0,98.0,-1.4,-0.3,1.08,GOOD
1790977301201,960,2009.0,-70.22227066086832,32000.0,96.0,98.0,-1.4,-0.3,1.08,GOOD
1790977301201,961,2043.0,-81.55918424232624,32000.0,96.0,98.0,-1.4,-0.3,1.08,GOOD
1790977301201,962,2036.0,-80.46612315069125,32000.0,96.0,98.0,-1.4,-0.3,1.08,GOOD
1790977301201,963,2020.0,-68.9024875474287,32000.0,96.0,98.0,-1.4,-0.3,1.08,GOOD
1790977301201,964,2039.0,-62.447523952010286,32000.0,96.0,98.0,-1.4,-0.3,1.08,GOOD
1790977301201,965,2067.0,-63.12461569219448,32000.0,96.0,98.0,-1.4,-0.3,1.08,GOOD
1790977301201,966,2070.0,-57.99361608747119,32000.0,96.0,98.0,-1.4,-0.3,1.08,GOOD
1790977301201,967,2026.0,-43.42865416813196,32000.0,96.0,98.0,-1.4,-0.3,1.08,GOOD
1790977301201,968,1996.0,-34.812204450252665,32000.0,96.0,98.0,-1.4,-0.3,1.08,GOOD
1790977301201,969,1969.0,-47.323218986777775,32000.0,96.0,98.0,-1.4,-0.3,1.08,GOOD
1790977301201,970,1973.0,-76.87810726638517,32000.0,96.0,98.0,-1.4,-0.3,1.08,GOOD
1790977301201,971,1979.0,-105.02586485281927,32000.0,96.0,98.0,-1.4,-0.3,1.08,GOOD
1790977301201,972,1961.0,-118.87911414648123,32000.0,96.0,98.0,-1.4,-0.3,1.08,GOOD
1790977301201,973,1942.0,-122.26754505371346,32000.0,96.0,98.0,-1.4,-0.3,1.08,GOOD
1790977301201,974,1966.0,-124.85933532800324,32000.0,96.0,98.0,-1.4,-0.3,1.08,GOOD
1790977301201,975,2010.0,-125.43457679215271,32000.0,96.0,98.0,-1.4,-0.3,1.08,GOOD
1790977301347,976,1975.0,-116.80609697448156,32000.0,108.9,98.0,-1.5,-0.2,1.08,GOOD
1790977301347,977,1927.0,-104.48427125466088,32000.0,108.9,98.0,-1.5,-0.2,1.08,GOOD
1790977301347,978,1926.0,-103.41047760287103,32000.0,108.9,98.0,-1.5,-0.2,1.08,GOOD
1790977301347,979,1818.0,-121.36841015402608,32000.0,108.9,98.0,-1.5,-0.2,1.08,GOOD
1790977301347,980,1557.0,-167.77070142886046,32000.0,108.9,98.0,-1.5,-0.2,1.08,GOOD
1790977301347,981,1519.0,-257.2155649977094,32000.0,108.9,98.0,-1.5,-0.2,1.08,GOOD
1790977301347,982,1587.0,-374.57789386969785,32000.0,108.9,98.0,-1.5,-0.2,1.08,GOOD
1790977301347,983,2096.0,-450.8879023219582,32000.0,108.9,98.0,-1.5,-0.2,1.08,GOOD
1790977301347,984,2031.0,-410.89392615917535,32000.0,108.9,98.0,-1.5,-0.2,1.08,GOOD
1790977301347,985,2067.0,-261.5132824327163,32000.0,108.9,98.0,-1.5,-0.2,1.08,GOOD
1790977301347,986,2105.0,-84.82472015855848,32000.0,108.9,98.0,-1.5,-0.2,1.08,GOOD
1790977301347,987,2048.0,47.46459339291906,32000.0,108.9,98.0,-1.5,-0.2,1.08,GOOD
1790977301347,988,1941.0,97.66619525954381,32000.0,108.9,98.0,-1.5,-0.2,1.08,GOOD
1790977301347,989,1949.0,59.20258701068306,32000.0,108.9,98.0,-1.5,-0.2,1.08,GOOD
1790977301347,990,2006.0,-24.836677909847804,32000.0,108.9,98.0,-1.5,-0.2,1.08,GOOD
1790977301347,991,2029.0,-84.5256494477385,32000.0,108.9,98.0,-1.5,-0.2,1.08,GOOD
1790977301347,992,1966.0,-87.3810219611608,32000.0,108.9,98.0,-1.5,-0.2,1.08,GOOD
1790977301347,993,2060.0,-57.23982433278576,32000.0,108.9,98.0,-1.5,-0.2,1.08,GOOD
1790977301347,994,2035.0,-28.081652315674184,32000.0,108.9,98.0,-1.5,-0.2,1.08,GOOD
1790977301347,995,2118.0,-8.476574333918105,32000.0,108.9,98.0,-1.5,-0.2,1.08,GOOD
1790977301347,996,2188.0,15.872861307065918,32000.0,108.9,98.0,-1.5,-0.2,1.08,GOOD
1790977301347,997,2171.0,58.127711976630565,32000.0,108.9,98.0,-1.5,-0.2,1.08,GOOD
1790977301347,998,2117.0,104.0245416775884,32000.0,108.9,98.0,-1.5,-0.2,1.08,GOOD
1790977301347,999,2081.0,123.14985043524385,32000.0,108.9,98.0,-1.5,-0.2,1.08,GOOD
1790977301347,1000,2076.0,105.34770823310078,32000.0,108.9,98.0,-1.5,-0.2,1.08,GOOD
1790977301512,1001,2109.0,70.52717107207755,32000.0,108.9,98.0,-1.4,-0.2,1.07,GOOD
1790977301512,1002,2084.0,44.480326885049564,32000.0,108.9,98.0,-1.4,-0.2,1.07,GOOD
1790977301512,1003,2049.0,33.03005289448377,32000.0,108.9,98.0,-1.4,-0.2,1.07,GOOD
1790977301512,1004,2058.0,25.854382080105474,32000.0,108.9,98.0,-1.4,-0.2,1.07,GOOD
1790977301512,1005,1970.0,14.300709365433338,32000.0,108.9,98.0,-1.4,-0.2,1.07,GOOD
1790977301512,1006,2099.0,-1.1297007217589803,32000.0,108.9,98.0,-1.4,-0.2,1.07,GOOD
1790977301512,1007,2082.0,-8.990577112525532,32000.0,108.9,98.0,-1.4,-0.2,1.07,GOOD
1790977301512,1008,2064.0,-2.063579090359191,32000.0,108.9,98.0,-1.4,-0.2,1.07,GOOD
1790977301512,1009,2026.0,9.306073210363895,32000.0,108.9,98.0,-1.4,-0.2,1.07,GOOD
1790977301512,1010,2032.0,12.91803466751259,32000.0,108.9,98.0,-1.4,-0.2,1.07,GOOD
1790977301512,1011,2070.0,9.00773395151095,32000.0,108.9,98.0,-1.4,-0.2,1.07,GOOD
1790977301512,1012,2018.0,2.5546204350167105,32000.0,108.9,98.0,-1.4,-0.2,1.07,GOOD
1790977301512,1013,1952.0,-9.74258071813203,32000.0,108.9,98.0,-1.4,-0.2,1.07,GOOD
1790977301512,1014,1839.0,-37.57930474507422,32000.0,108.9,98.0,-1.4,-0.2,1.07,GOOD
1790977301512,1015,1863.0,-82.76360663473338,32000.0,108.9,98.0,-1.4,-0.2,1.07,GOOD
1790977301512,1016,1697.0,-139.06162855495148,32000.0,108.9,98.0,-1.4,-0.2,1.07,GOOD
1790977301512,1017,1333.0,-219.8679702537921,32000.0,108.9,98.0,-1.4,-0.2,1.07,GOOD
1790977301512,1018,2012.0,-324.55211603700457,32000.0,108.9,98.0,-1.4,-0.2,1.07,GOOD
1790977301512,1019,2117.0,-368.3284892444798,32000.0,108.9,98.0,-1.4,-0.2,1.07,GOOD
1790977301512,1020,2149.0,-275.7771194508913,32000.0,108.9,98.0,-1.4,-0.2,1.07,GOOD
1790977301512,1021,2238.0,-92.22590790984744,32000.0,108.9,98.0,-1.4,-0.2,1.07,GOOD
1790977301512,1022,2248.0,90.87265673341885,32000.0,108.9,98.0,-1.4,-0.2,1.07,GOOD
1790977301512,1023,2097.0,212.43560046781073,32000.0,108.9,98.0,-1.4,-0.2,1.07,GOOD
1790977301512,1024,2002.0,236.4775193298775,32000.0,108.9,98.0,-1.4,-0.2,1.07,GOOD
1790977301512,1025,1943.0,163.18315682238648,32000.0,108.9,98.0,-1.4,-0.2,1.07,GOOD
1790977301513,1026,1880.0,39.03144140447442,32000.0,108.9,98.0,-1.4,-0.2,1.07,GOOD
1790977301513,1027,1886.0,-74.98375056875645,32000.0,108.9,98.0,-1.4,-0.2,1.07,GOOD
1790977301513,1028,1851.0,-143.1931806738645,32000.0,108.9,98.0,-1.4,-0.2,1.07,GOOD
1790977301513,1029,1975.0,-163.53036585370165,32000.0,108.9,98.0,-1.4,-0.2,1.07,GOOD
1790977301513,1030,2158.0,-140.7713289785364,32000.0,108.9,98.0,-1.4,-0.2,1.07,GOOD
1790977301513,1031,2383.0,-64.74657723303656,32000.0,108.9,98.0,-1.4,-0.2,1.07,GOOD
1790977301513,1032,2494.0,72.36333655156366,32000.0,108.9,98.0,-1.4,-0.2,1.07,GOOD
1790977301513,1033,2440.0,243.14077644013966,32000.0,108.9,98.0,-1.4,-0.2,1.07,GOOD
1790977301513,1034,2371.0,384.17009560847174,32000.0,108.9,98.0,-1.4,-0.2,1.07,GOOD
1790977301513,1035,2309.0,440.5080104382274,32000.0,108.9,98.0,-1.4,-0.2,1.07,GOOD
1790977301513,1036,2048.0,397.58479521391234,32000.0,108.9,98.0,-1.4,-0.2,1.07,GOOD
1790977301513,1037,2053.0,275.70033828041176,32000.0,108.9,98.0,-1.4,-0.2,1.07,GOOD
1790977301513,1038,1919.0,122.18262493824234,32000.0,108.9,98.0,-1.4,-0.2,1.07,GOOD
1790977301513,1039,1879.0,-14.242019387992851,32000.0,108.9,98.0,-1.4,-0.2,1.07,GOOD
1790977301513,1040,1862.0,-112.40031421565239,32000.0,108.9,98.0,-1.4,-0.2,1.07,GOOD
1790977301513,1041,1880.0,-170.77273588449145,32000.0,108.9,98.0,-1.4,-0.2,1.07,GOOD
1790977301513,1042,1873.0,-193.7126153830327,32000.0,108.9,98.0,-1.4,-0.2,1.07,GOOD
1790977301513,1043,1863.0,-191.26696701166287,32000.0,108.9,98.0,-1.4,-0.2,1.07,GOOD
1790977301513,1044,1873.0,-177.43877049828035,32000.0,108.9,98.0,-1.4,-0.2,1.07,GOOD
1790977301513,1045,1983.0,-159.7524686012181,32000.0,108.9,98.0,-1.4,-0.2,1.07,GOOD
1790977301513,1046,2041.0,-132.42096709651207,32000.0,108.9,98.0,-1.4,-0.2,1.07,GOOD
1790977301513,1047,2093.0,-87.80532462116653,32000.0,108.9,98.0,-1.4,-0.2,1.07,GOOD
1790977301513,1048,2092.0,-29.780973239070562,32000.0,108.9,98.0,-1.4,-0.2,1.07,GOOD
1790977301513,1049,2104.0,27.5850501109609,32000.0,108.9,98.0,-1.4,-0.2,1.07,GOOD
1790977301513,1050,2104.0,68.98465578843037,32000.0,108.9,98.0,-1.4,-0.2,1.07,GOOD
1790977303120,1051,1938.0,79.39643774797396,-56.0,108.9,98.0,-1.4,-0.1,1.08,GOOD
1790977303120,1052,1937.0,47.13374408911626,-53.0,108.9,98.0,-1.4,-0.1,1.08,GOOD
1790977303120,1053,1892.0,-17.14752841306982,-49.0,108.9,98.0,-1.4,-0.1,1.08,GOOD
1790977303120,1054,1856.0,-84.00788578967776,-45.0,108.9,98.0,-1.4,-0.1,1.08,GOOD
1790977303120,1055,1796.0,-136.85533703095481,-43.0,108.9,98.0,-1.4,-0.1,1.08,GOOD
1790977303120,1056,2224.0,-161.25553224434296,-39.0,108.9,98.0,-1.4,-0.1,1.08,GOOD
1790977303120,1057,2202.0,-122.72599568859985,-33.0,108.9,98.0,-1.4,-0.1,1.08,GOOD
1790977303120,1058,2180.0,-17.76252639192564,-33.0,108.9,98.0,-1.4,-0.1,1.08,GOOD
1790977303120,1059,2222.0,101.07450118115896,-31.0,108.9,98.0,-1.4,-0.1,1.08,GOOD
1790977303120,1060,2208.0,185.49061988698114,-26.0,108.9,98.0,-1.4,-0.1,1.08,GOOD
1790977303120,1061,2223.0,220.89795223119972,-25.0,108.9,98.0,-1.4,-0.1,1.08,GOOD
1790977303120,1062,2220.0,213.7020487653472,-22.0,108.9,98.0,-1.4,-0.1,1.08,GOOD
1790977303120,1063,2178.0,184.31753958112768,-19.0,108.9,98.0,-1.4,-0.1,1.08,GOOD
1790977303120,1064,2177.0,156.03111466667283,-16.0,108.9,98.0,-1.4,-0.1,1.08,GOOD
1790977303120,1065,1971.0,133.77133481525266,-14.0,108.9,98.0,-1.4,-0.1,1.08,GOOD
1790977303120,1066,1940.0,94.75484119187934,-11.0,108.9,98.0,-1.4,-0.1,1.08,GOOD
1790977303120,1067,1967.0,23.854922836288377,-6.0,108.9,98.0,-1.4,-0.1,1.08,GOOD
1790977303120,1068,2055.0,-51.25433254046344,-2.0,108.9,98.0,-1.4,-0.1,1.08,GOOD
1790977303120,1069,2113.0,-83.94858062464074,0.0,108.9,98.0,-1.4,-0.1,1.08,GOOD
1790977303120,1070,2103.0,-56.16931923406086,2.0,108.9,98.0,-1.4,-0.1,1.08,GOOD
1790977303120,1071,2069.0,4.545546599871775,4.0,108.9,98.0,-1.4,-0.1,1.08,GOOD
1790977303120,1072,2025.0,50.416562519173546,4.0,108.9,98.0,-1.4,-0.1,1.08,GOOD
1790977303120,1073,1991.0,52.3161217100117,5.0,108.9,98.0,-1.4,-0.1,1.08,GOOD
1790977303120,1074,1960.0,15.21933891652437,3.0,108.9,98.0,-1.4,-0.1,1.08,GOOD
1790977303120,1075,1975.0,-34.13480719101639,3.0,108.9,98.0,-1.4,-0.1,1.08,GOOD
1790977303121,1076,1982.0,-69.47409438373205,32000.0,108.9,98.0,-1.4,-0.1,1.08,GOOD
1790977303121,1077,1919.0,-83.86872903567736,32000.0,108.9,98.0,-1.4,-0.1,1.08,GOOD
1790977303121,1078,1902.0,-91.07275592943583,32000.0,108.9,98.0,-1.4,-0.1,1.08,GOOD
1790977303121,1079,1925.0,-102.90590481425495,32000.0,108.9,98.0,-1.4,-0.1,1.08,GOOD
1790977303121,1080,2019.0,-110.97353302156017,32000.0,108.9,98.0,-1.4,-0.1,1.08,GOOD
1790977303121,1081,2002.0,-99.97880892635695,32000.0,108.9,98.0,-1.4,-0.1,1.08,GOOD
1790977303121,1082,1991.0,-72.6675749313049,32000.0,108.9,98.0,-1.4,-0.1,1.08,GOOD
1790977303121,1083,1864.0,-51.62431629491064,32000.0,108.9,98.0,-1.4,-0.1,1.08,GOOD
1790977303121,1084,1980.0,-53.82386903988933,32000.0,108.9,98.0,-1.4,-0.1,1.08,GOOD
1790977303121,1085,1996.0,-68.11095917644637,32000.0,108.9,98.0,-1.4,-0.1,1.08,GOOD
1790977303121,1086,1887.0,-77.34093812636729,32000.0,108.9,98.0,-1.4,-0.1,1.08,GOOD
1790977303121,1087,1979.0,-83.71993592478802,32000.0,108.9,98.0,-1.4,-0.1,1.08,GOOD
1790977303121,1088,1972.0,-86.42819759084563,32000.0,108.9,98.0,-1.4,-0.1,1.08,GOOD
1790977303121,1089,1986.0,-76.07903410520146,32000.0,108.9,98.0,-1.4,-0.1,1.08,GOOD
1790977303121,1090,1983.0,-56.9718663890746,32000.0,108.9,98.0,-1.4,-0.1,1.08,GOOD
1790977303121,1091,1968.0,-42.94398698676912,32000.0,108.9,98.0,-1.4,-0.1,1.08,GOOD
1790977303121,1092,1968.0,-40.570529689772634,32000.0,108.9,98.0,-1.4,-0.1,1.08,GOOD
1790977303121,1093,1986.0,-44.21456730975794,32000.0,108.9,98.0,-1.4,-0.1,1.08,GOOD
1790977303121,1094,2022.0,-43.080437895396656,32000.0,108.9,98.0,-1.4,-0.1,1.08,GOOD
1790977303121,1095,2030.0,-32.318225026666695,32000.0,108.9,98.0,-1.4,-0.1,1.08,GOOD
1790977303121,1096,2008.0,-17.15618594537169,32000.0,108.9,98.0,-1.4,-0.1,1.08,GOOD
1790977303121,1097,2000.0,-6.35482050131494,32000.0,108.9,98.0,-1.4,-0.1,1.08,GOOD
1790977303121,1098,2023.0,-2.007061133944505,32000.0,108.9,98.0,-1.4,-0.1,1.08,GOOD
1790977303121,1099,2000.0,-0.6728852535464549,32000.0,108.9,98.0,-1.4,-0.1,1.08,GOOD
1790977303121,1100,2020.0,-1.9739335593771798,32000.0,108.9,98.0,-1.4,-0.1,1.08,GOOD
1790977305803,1101,1997.0,-6.873115100532452,14.0,141.5,98.0,-1.4,-0.2,1.08,GOOD
1790977305803,1102,2007.0,-12.308206035158626,14.0,141.5,98.0,-1.4,-0.2,1.08,GOOD
1790977305803,1103,2025.0,-12.90278654115639,15.0,141.5,98.0,-1.4,-0.2,1.08,GOOD
1790977305803,1104,2038.0,-6.0843438909843615,15.0,141.5,98.0,-1.4,-0.2,1.08,GOOD
1790977305803,1105,2013.0,3.4027144617317364,15.0,141.5,98.0,-1.4,-0.2,1.08,GOOD
1790977305803,1106,2015.0,7.587221977146787,14.0,141.5,98.0,-1.4,-0.2,1.08,GOOD
1790977305803,1107,2014.0,5.532322943581537,14.0,141.5,98.0,-1.4,-0.2,1.08,GOOD
1790977305803,1108,2001.0,2.324927437991854,12.0,141.5,98.0,-1.4,-0.2,1.08,GOOD
1790977305803,1109,1997.0,-0.949005306282938,14.0,141.5,98.0,-1.4,-0.2,1.08,GOOD
1790977305803,1110,1998.0,-7.154957554707876,13.0,141.5,98.0,-1.4,-0.2,1.08,GOOD
1790977305803,1111,1995.0,-15.542126035339166,15.0,141.5,98.0,-1.4,-0.2,1.08,GOOD
1790977305803,1112,1936.0,-23.52528172117311,14.0,141.5,98.0,-1.4,-0.2,1.08,GOOD
1790977305803,1113,1695.0,-42.690604247840746,16.0,141.5,98.0,-1.4,-0.2,1.08,GOOD
1790977305803,1114,1749.0,-94.76046047179454,18.0,141.5,98.0,-1.4,-0.2,1.08,GOOD
1790977305803,1115,1747.0,-173.5581651029155,16.0,141.5,98.0,-1.4,-0.2,1.08,GOOD
1790977305803,1116,1737.0,-243.9403866477801,17.0,141.5,98.0,-1.4,-0.2,1.08,GOOD
1790977305803,1117,1889.0,-275.9935265865039,20.0,141.5,98.0,-1.4,-0.2,1.08,GOOD
1790977305803,1118,2041.0,-248.98778301172737,17.0,141.5,98.0,-1.4,-0.2,1.08,GOOD
1790977305803,1119,2119.0,-157.20460315727752,18.0,141.5,98.0,-1.4,-0.2,1.08,GOOD
1790977305803,1120,2589.0,-11.948200975148042,17.0,141.5,98.0,-1.4,-0.2,1.08,GOOD
1790977305803,1121,2776.0,184.51964539459266,17.0,141.5,98.0,-1.4,-0.2,1.08,GOOD
1790977305803,1122,2745.0,416.75287423096876,19.0,141.5,98.0,-1.4,-0.2,1.08,GOOD
1790977305803,1123,2495.0,615.1655354487041,19.0,141.5,98.0,-1.4,-0.2,1.08,GOOD
1790977305803,1124,2008.0,681.9499333890617,18.0,141.5,98.0,-1.4,-0.2,1.08,GOOD
1790977305803,1125,1991.0,563.0601961856389,21.0,141.5,98.0,-1.4,-0.2,1.08,GOOD
1790977305803,1126,1852.0,305.3952012420753,32000.0,141.5,98.0,-1.4,-0.2,1.08,GOOD
1790977305803,1127,1831.0,23.138809746449198,32000.0,141.5,98.0,-1.4,-0.2,1.08,GOOD
1790977305803,1128,1691.0,-190.25939032328566,32000.0,141.5,98.0,-1.4,-0.2,1.08,GOOD
1790977305803,1129,1667.0,-302.7881067010334,32000.0,141.5,98.0,-1.4,-0.2,1.08,GOOD
1790977305803,1130,1694.0,-333.6264773446053,32000.0,141.5,98.0,-1.4,-0.2,1.08,GOOD
1790977305803,1131,1641.0,-327.9467449428121,32000.0,141.5,98.0,-1.4,-0.2,1.08,GOOD
1790977305803,1132,1660.0,-329.16028268869496,32000.0,141.5,98.0,-1.4,-0.2,1.08,GOOD
1790977305803,1133,1666.0,-346.8111389722262,32000.0,141.5,98.0,-1.4,-0.2,1.08,GOOD
1790977305803,1134,1691.0,-355.2176111820743,32000.0,141.5,98.0,-1.4,-0.2,1.08,GOOD
1790977305803,1135,1741.0,-333.5834768479119,32000.0,141.5,98.0,-1.4,-0.2,1.08,GOOD
1790977305803,1136,1791.0,-290.65736035569887,32000.0,141.5,98.0,-1.4,-0.2,1.08,GOOD
1790977305803,1137,1751.0,-251.14743661125206,32000.0,141.5,98.0,-1.4,-0.2,1.08,GOOD
1790977305803,1138,1609.0,-235.32894764774952,32000.0,141.5,98.0,-1.4,-0.2,1.08,GOOD
1790977305803,1139,1547.0,-250.89663045133682,32000.0,141.5,98.0,-1.4,-0.2,1.08,GOOD
1790977305803,1140,1671.0,-286.4590887463362,32000.0,141.5,98.0,-1.4,-0.2,1.08,GOOD
1790977305803,1141,1616.0,-319.47737316762766,32000.0,141.5,98.0,-1.4,-0.2,1.08,GOOD
1790977305803,1142,1753.0,-336.35695524928894,32000.0,141.5,98.0,-1.4,-0.2,1.08,GOOD
1790977305803,1143,1863.0,-321.6882768841808,32000.0,141.5,98.0,-1.4,-0.2,1.08,GOOD
1790977305803,1144,2049.0,-249.17097518956248,32000.0,141.5,98.0,-1.4,-0.2,1.08,GOOD
1790977305803,1145,2113.0,-115.41939607087232,32000.0,141.5,98.0,-1.4,-0.2,1.08,GOOD
1790977305803,1146,2003.0,31.45511273592071,32000.0,141.5,98.0,-1.4,-0.2,1.08,GOOD
1790977305803,1147,1861.0,116.64220211168612,32000.0,141.5,98.0,-1.4,-0.2,1.08,GOOD
1790977305803,1148,2153.0,116.6342598038779,32000.0,141.5,98.0,-1.4,-0.2,1.08,GOOD
1790977305803,1149,2162.0,93.63104033449503,32000.0,141.5,98.0,-1.4,-0.2,1.08,GOOD
1790977305803,1150,2146.0,108.62469864975895,32000.0,141.5,98.0,-1.4,-0.2,1.08,GOOD
1790977305804,1151,2211.0,154.34793882984744,32000.0,141.5,98.0,-1.4,-0.2,1.08,GOOD
1790977305804,1152,2280.0,204.48297084544663,32000.0,141.5,98.0,-1.4,-0.2,1.08,GOOD
1790977305804,1153,2272.0,253.36669630776663,32000.0,141.5,98.0,-1.4,-0.2,1.08,GOOD
1790977305804,1154,2236.0,294.77851950122476,32000.0,141.5,98.0,-1.4,-0.2,1.08,GOOD
1790977305804,1155,2228.0,312.97448794375475,32000.0,141.5,98.0,-1.4,-0.2,1.08,GOOD
1790977305804,1156,2250.0,303.3238146305535,32000.0,141.5,98.0,-1.4,-0.2,1.08,GOOD
1790977305804,1157,2276.0,282.38569815485795,32000.0,141.5,98.0,-1.4,-0.2,1.08,GOOD
1790977305804,1158,2290.0,271.5942061794325,32000.0,141.5,98.0,-1.4,-0.2,1.08,GOOD
1790977305804,1159,2290.0,277.7440595959282,32000.0,141.5,98.0,-1.4,-0.2,1.08,GOOD
1790977305804,1160,2323.0,292.935013041243,32000.0,141.5,98.0,-1.4,-0.2,1.08,GOOD
1790977305804,1161,2306.0,307.4088074033351,32000.0,141.5,98.0,-1.4,-0.2,1.08,GOOD
1790977305804,1162,2335.0,316.60419818231503,32000.0,141.5,98.0,-1.4,-0.2,1.08,GOOD
1790977305804,1163,2342.0,321.6485288553911,32000.0,141.5,98.0,-1.4,-0.2,1.08,GOOD
1790977305804,1164,2384.0,327.0129025053972,32000.0,141.5,98.0,-1.4,-0.2,1.08,GOOD
1790977305804,1165,2367.0,335.19175648613646,32000.0,141.5,98.0,-1.4,-0.2,1.08,GOOD
1790977305804,1166,2239.0,338.32220211165384,32000.0,141.5,98.0,-1.4,-0.2,1.08,GOOD
1790977305804,1167,2372.0,325.98812840545224,32000.0,141.5,98.0,-1.4,-0.2,1.08,GOOD
1790977305804,1168,2379.0,308.5246580976683,32000.0,141.5,98.0,-1.4,-0.2,1.08,GOOD
1790977305804,1169,2381.0,304.05689573733747,32000.0,141.5,98.0,-1.4,-0.2,1.08,GOOD
1790977305804,1170,2389.0,311.968105339571,32000.0,141.5,98.0,-1.4,-0.2,1.08,GOOD
1790977305804,1171,2376.0,323.1313130199386,32000.0,141.5,98.0,-1.4,-0.2,1.08,GOOD
1790977305804,1172,2375.0,332.1148356416354,32000.0,141.5,98.0,-1.4,-0.2,1.08,GOOD
1790977305804,1173,2382.0,334.2877254153438,32000.0,141.5,98.0,-1.4,-0.2,1.08,GOOD
1790977305804,1174,2322.0,324.3064103007393,32000.0,141.5,98.0,-1.4,-0.2,1.08,GOOD
1790977305804,1175,2355.0,301.08751817840783,32000.0,141.5,98.0,-1.4,-0.2,1.08,GOOD
1790977306121,1176,2359.0,276.1724638750038,-622.0,121.5,98.0,-1.4,-0.2,1.08,GOOD
1790977306121,1177,2371.0,264.91194037587246,-620.0,121.5,98.0,-1.4,-0.2,1.08,GOOD
1790977306121,1178,2347.0,267.00670634145155,-617.0,121.5,98.0,-1.4,-0.2,1.08,GOOD
1790977306121,1179,2317.0,267.2077774372424,-619.0,121.5,98.0,-1.4,-0.2,1.08,GOOD
1790977306121,1180,2247.0,251.7005205693116,-613.0,121.5,98.0,-1.4,-0.2,1.08,GOOD
1790977306121,1181,2201.0,217.63893335713072,-611.0,121.5,98.0,-1.4,-0.2,1.08,GOOD
1790977306121,1182,2024.0,165.44375893270603,-611.0,121.5,98.0,-1.4,-0.2,1.08,GOOD
1790977306121,1183,2041.0,92.21557169932544,-607.0,121.5,98.0,-1.4,-0.2,1.08,GOOD
1790977306121,1184,2137.0,11.730331228190462,-610.0,121.5,98.0,-1.4,-0.2,1.08,GOOD
1790977306121,1185,1835.0,-52.64970579546188,-607.0,121.5,98.0,-1.4,-0.2,1.08,GOOD
1790977306121,1186,1809.0,-108.83685932230878,-605.0,121.5,98.0,-1.4,-0.2,1.08,GOOD
1790977306121,1187,1770.0,-175.30362544172417,-603.0,121.5,98.0,-1.4,-0.2,1.08,GOOD
1790977306121,1188,1802.0,-243.19431229131692,-602.0,121.5,98.0,-1.4,-0.2,1.08,GOOD
1790977306121,1189,1897.0,-290.9846643919138,-599.0,121.5,98.0,-1.4,-0.2,1.08,GOOD
1790977306121,1190,1960.0,-299.79517443586883,-598.0,121.5,98.0,-1.4,-0.2,1.08,GOOD
1790977306121,1191,2042.0,-258.5449486282902,-594.0,121.5,98.0,-1.4,-0.2,1.08,GOOD
1790977306121,1192,2048.0,-175.77576066992364,-592.0,121.5,98.0,-1.4,-0.2,1.08,GOOD
1790977306121,1193,2072.0,-83.70967496398956,-588.0,121.5,98.0,-1.4,-0.2,1.08,GOOD
1790977306121,1194,2060.0,-20.375676032095882,-585.0,121.5,98.0,-1.4,-0.2,1.08,GOOD
1790977306121,1195,2011.0,-3.412227418506042,-584.0,121.5,98.0,-1.4,-0.2,1.08,GOOD
1790977306121,1196,2018.0,-21.577969673321856,-582.0,121.5,98.0,-1.4,-0.2,1.08,GOOD
1790977306121,1197,2035.0,-46.690889825076304,-579.0,121.5,98.0,-1.4,-0.2,1.08,GOOD
1790977306121,1198,1883.0,-64.37730827400298,-576.0,121.5,98.0,-1.4,-0.2,1.08,GOOD
1790977306121,1199,1755.0,-95.12811539219786,-574.0,121.5,98.0,-1.4,-0.2,1.08,GOOD
1790977306121,1200,1814.0,-158.96897888281558,-572.0,121.5,98.0,-1.4,-0.2,1.08,GOOD
1790977306122,1201,1894.0,-229.5302400300785,32000.0,121.5,98.0,-1.4,-0.2,1.08,GOOD
1790977306122,1202,1910.0,-260.32502765669096,32000.0,121.5,98.0,-1.4,-0.2,1.08,GOOD
1790977306122,1203,2024.0,-236.47595586298826,32000.0,121.5,98.0,-1.4,-0.2,1.08,GOOD
1790977306122,1204,2001.0,-175.90509398282336,32000.0,121.5,98.0,-1.4,-0.2,1.08,GOOD
1790977306122,1205,1840.0,-114.81086056340237,32000.0,121.5,98.0,-1.4,-0.2,1.08,GOOD
1790977306122,1206,1808.0,-94.28969734708217,32000.0,121.5,98.0,-1.4,-0.2,1.08,GOOD
1790977306122,1207,1781.0,-127.80863766763756,32000.0,121.5,98.0,-1.4,-0.2,1.08,GOOD
1790977306122,1208,1894.0,-187.89811193951897,32000.0,121.5,98.0,-1.4,-0.2,1.08,GOOD
1790977306122,1209,1960.0,-228.82185844216136,32000.0,121.5,98.0,-1.4,-0.2,1.08,GOOD
1790977306122,1210,2137.0,-213.536636344472,32000.0,121.5,98.0,-1.4,-0.2,1.08,GOOD
1790977306122,1211,2113.0,-133.93018987860938,32000.0,121.5,98.0,-1.4,-0.2,1.08,GOOD
1790977306122,1212,2144.0,-21.97501950840737,32000.0,121.5,98.0,-1.4,-0.2,1.08,GOOD
1790977306122,1213,2124.0,70.60581600804797,32000.0,121.5,98.0,-1.4,-0.2,1.08,GOOD
1790977306122,1214,2231.0,116.33147236875783,32000.0,121.5,98.0,-1.4,-0.2,1.08,GOOD
1790977306122,1215,2239.0,129.4127784459394,32000.0,121.5,98.0,-1.4,-0.2,1.08,GOOD
1790977306122,1216,2253.0,139.0689488381549,32000.0,121.5,98.0,-1.4,-0.2,1.08,GOOD
1790977306122,1217,2281.0,159.4909080055071,32000.0,121.5,98.0,-1.4,-0.2,1.08,GOOD
1790977306122,1218,2286.0,187.18126450069056,32000.0,121.5,98.0,-1.4,-0.2,1.08,GOOD
1790977306122,1219,2285.0,210.0427688348925,32000.0,121.5,98.0,-1.4,-0.2,1.08,GOOD
1790977306122,1220,2215.0,215.72040533669292,32000.0,121.5,98.0,-1.4,-0.2,1.08,GOOD
1790977306122,1221,2232.0,200.95271799616881,32000.0,121.5,98.0,-1.4,-0.2,1.08,GOOD
1790977306122,1222,2279.0,178.47365047641713,32000.0,121.5,98.0,-1.4,-0.2,1.08,GOOD
1790977306122,1223,2327.0,168.6044485119465,32000.0,121.5,98.0,-1.4,-0.2,1.08,GOOD
1790977306122,1224,2352.0,180.06718781332762,32000.0,121.5,98.0,-1.4,-0.2,1.08,GOOD
1790977306122,1225,2365.0,206.27046651430112,32000.0,121.5,98.0,-1.4,-0.2,1.08,GOOD
1790977306408,1226,2367.0,236.43044401364557,32000.0,121.5,98.0,-1.4,-0.2,1.08,GOOD
1790977306408,1227,2365.0,261.7332253050918,32000.0,121.5,98.0,-1.4,-0.2,1.08,GOOD
1790977306408,1228,2363.0,274.67272650628905,32000.0,121.5,98.0,-1.4,-0.2,1.08,GOOD
1790977306408,1229,2377.0,271.91823435384686,32000.0,121.5,98.0,-1.4,-0.2,1.08,GOOD
1790977306408,1230,2395.0,260.0850069025269,32000.0,121.5,98.0,-1.4,-0.2,1.08,GOOD
1790977306408,1231,2402.0,252.4580196260716,32000.0,121.5,98.0,-1.4,-0.2,1.08,GOOD
1790977306408,1232,2408.0,256.51186458711743,32000.0,121.5,98.0,-1.4,-0.2,1.08,GOOD
1790977306408,1233,2349.0,264.9798009388278,32000.0,121.5,98.0,-1.4,-0.2,1.08,GOOD
1790977306408,1234,2340.0,261.56282990025505,32000.0,121.5,98.0,-1.4,-0.2,1.08,GOOD
1790977306408,1235,2327.0,239.38530423578268,32000.0,121.5,98.0,-1.4,-0.2,1.08,GOOD
1790977306408,1236,2317.0,208.18030855756697,32000.0,121.5,98.0,-1.4,-0.2,1.08,GOOD
1790977306408,1237,2187.0,176.25472159332924,32000.0,121.5,98.0,-1.4,-0.2,1.08,GOOD
1790977306408,1238,2326.0,143.48674261794696,32000.0,121.5,98.0,-1.4,-0.2,1.08,GOOD
1790977306408,1239,2301.0,118.82873344594024,32000.0,121.5,98.0,-1.4,-0.2,1.08,GOOD
1790977306408,1240,2259.0,111.16010570245288,32000.0,121.5,98.0,-1.4,-0.2,1.08,GOOD
1790977306408,1241,2229.0,110.01017557629787,32000.0,121.5,98.0,-1.4,-0.2,1.08,GOOD
1790977306408,1242,2147.0,99.23748943038748,32000.0,121.5,98.0,-1.4,-0.2,1.08,GOOD
1790977306408,1243,2142.0,71.21471981442433,32000.0,121.5,98.0,-1.4,-0.2,1.08,GOOD
1790977306408,1244,2132.0,29.288949368368673,32000.0,121.5,98.0,-1.4,-0.2,1.08,GOOD
1790977306408,1245,2102.0,-14.955057077203003,32000.0,121.5,98.0,-1.4,-0.2,1.08,GOOD
1790977306408,1246,2082.0,-51.245994018951976,32000.0,121.5,98.0,-1.4,-0.2,1.08,GOOD
1790977306408,1247,2061.0,-75.0282919763913,32000.0,121.5,98.0,-1.4,-0.2,1.08,GOOD
1790977306408,1248,1918.0,-93.26285861338926,32000.0,121.5,98.0,-1.4,-0.2,1.08,GOOD
1790977306408,1249,1651.0,-135.05526167880112,32000.0,121.5,98.0,-1.4,-0.2,1.08,GOOD
1790977306408,1250,1909.0,-219.5674567347532,32000.0,121.5,98.0,-1.4,-0.2,1.08,GOOD
1790977306409,1251,1909.0,-306.61391777722224,32000.0,121.5,98.0,-1.4,-0.2,1.08,GOOD
1790977306409,1252,1930.0,-339.7609744159535,32000.0,121.5,98.0,-1.4,-0.2,1.08,GOOD
1790977306409,1253,1910.0,-315.17526960691157,32000.0,121.5,98.0,-1.4,-0.2,1.08,GOOD
1790977306409,1254,1954.0,-264.17097376996287,32000.0,121.5,98.0,-1.4,-0.2,1.08,GOOD
1790977306409,1255,1998.0,-212.44352084355498,32000.0,121.5,98.0,-1.4,-0.2,1.08,GOOD
1790977306409,1256,2024.0,-172.14347018235645,32000.0,121.5,98.0,-1.4,-0.2,1.08,GOOD
1790977306409,1257,2049.0,-145.81433503342754,32000.0,121.5,98.0,-1.4,-0.2,1.08,GOOD
1790977306409,1258,2032.0,-127.90094462972297,32000.0,121.5,98.0,-1.4,-0.2,1.08,GOOD
1790977306409,1259,2034.0,-110.9404019399677,32000.0,121.5,98.0,-1.4,-0.2,1.08,GOOD
1790977306409,1260,1988.0,-96.59940845917723,32000.0,121.5,98.0,-1.4,-0.2,1.08,GOOD
1790977306409,1261,1973.0,-96.75441938593143,32000.0,121.5,98.0,-1.4,-0.2,1.08,GOOD
1790977306409,1262,1995.0,-116.78660451723914,32000.0,121.5,98.0,-1.4,-0.2,1.08,GOOD
1790977306409,1263,2042.0,-140.36773388110473,32000.0,121.5,98.0,-1.4,-0.2,1.08,GOOD
1790977306409,1264,2029.0,-143.77405200123056,32000.0,121.5,98.0,-1.4,-0.2,1.08,GOOD
1790977306409,1265,2025.0,-123.99296413669624,32000.0,121.5,98.0,-1.4,-0.2,1.08,GOOD
1790977306409,1266,1963.0,-102.44585380081907,32000.0,121.5,98.0,-1.4,-0.2,1.08,GOOD
1790977306409,1267,2025.0,-99.46726373188235,32000.0,121.5,98.0,-1.4,-0.2,1.08,GOOD
1790977306409,1268,2016.0,-110.81212127222692,32000.0,121.5,98.0,-1.4,-0.2,1.08,GOOD
1790977306409,1269,2030.0,-117.74495654923624,32000.0,121.5,98.0,-1.4,-0.2,1.08,GOOD
1790977306409,1270,2006.0,-112.46367232036886,32000.0,121.5,98.0,-1.4,-0.2,1.08,GOOD
1790977306409,1271,1999.0,-103.1182711743304,32000.0,121.5,98.0,-1.4,-0.2,1.08,GOOD
1790977306409,1272,2028.0,-99.50832077144706,32000.0,121.5,98.0,-1.4,-0.2,1.08,GOOD
1790977306409,1273,2041.0,-100.12480703348746,32000.0,121.5,98.0,-1.4,-0.2,1.08,GOOD
1790977306409,1274,1975.0,-99.30623213665365,32000.0,121.5,98.0,-1.4,-0.2,1.08,GOOD
1790977306409,1275,2067.0,-96.45933203817347,32000.0,121.5,98.0,-1.4,-0.2,1.08,GOOD
1790977308462,1276,2053.0,-89.02020181218917,-270.0,92.3,98.0,-1.4,-0.2,1.08,GOOD
1790977308462,1277,2054.0,-75.85500260034775,-271.0,92.3,98.0,-1.4,-0.2,1.08,GOOD
1790977308462,1278,2080.0,-62.618972443115,-270.0,92.3,98.0,-1.4,-0.2,1.08,GOOD
1790977308462,1279,1967.0,-55.462778248406956,-270.0,92.3,98.0,-1.4,-0.2,1.08,GOOD
1790977308462,1280,2074.0,-57.77035219110861,-269.0,92.3,98.0,-1.4,-0.2,1.08,GOOD
1790977308462,1281,2100.0,-61.755079911359566,-271.0,92.3,98.0,-1.4,-0.2,1.08,GOOD
1790977308462,1282,2079.0,-55.742671418114824,-271.0,92.3,98.0,-1.4,-0.2,1.08,GOOD
1790977308462,1283,2019.0,-45.169972336412165,-276.0,92.3,98.0,-1.4,-0.2,1.08,GOOD
1790977308462,1284,2007.0,-43.873611615922066,-269.0,92.3,98.0,-1.4,-0.2,1.08,GOOD
1790977308462,1285,1880.0,-59.52653779989977,-274.0,92.3,98.0,-1.4,-0.2,1.08,GOOD
1790977308462,1286,1860.0,-97.89734305352304,-279.0,92.3,98.0,-1.4,-0.2,1.08,GOOD
1790977308462,1287,1893.0,-154.96930849413718,-281.0,92.3,98.0,-1.4,-0.2,1.08,GOOD
1790977308462,1288,2001.0,-203.21110468803863,-288.0,92.3,98.0,-1.4,-0.2,1.08,GOOD
1790977308462,1289,2016.0,-209.36548988018632,-288.0,92.3,98.0,-1.4,-0.2,1.08,GOOD
1790977308462,1290,1907.0,-173.01125967967306,-291.0,92.3,98.0,-1.4,-0.2,1.08,GOOD
1790977308462,1291,1961.0,-129.83955328656867,-292.0,92.3,98.0,-1.4,-0.2,1.08,GOOD
1790977308462,1292,1948.0,-109.18011112420051,-294.0,92.3,98.0,-1.4,-0.2,1.08,GOOD
1790977308462,1293,1959.0,-112.17758306201361,-293.0,92.3,98.0,-1.4,-0.2,1.08,GOOD
1790977308462,1294,1937.0,-126.49754621790285,-288.0,92.3,98.0,-1.4,-0.2,1.08,GOOD
1790977308462,1295,1951.0,-138.2127646091901,-289.0,92.3,98.0,-1.4,-0.2,1.08,GOOD
1790977308462,1296,1965.0,-137.72597319999767,-288.0,92.3,98.0,-1.4,-0.2,1.08,GOOD
1790977308462,1297,1964.0,-126.19402520939477,-288.0,92.3,98.0,-1.4,-0.2,1.08,GOOD
1790977308462,1298,1965.0,-114.12128101157779,-285.0,92.3,98.0,-1.4,-0.2,1.08,GOOD
1790977308462,1299,1974.0,-108.65778110446219,-284.0,92.3,98.0,-1.4,-0.2,1.08,GOOD
1790977308462,1300,1943.0,-107.00359766319644,-282.0,92.3,98.0,-1.4,-0.2,1.08,GOOD
1790977308463,1301,1976.0,-104.2054134441855,32000.0,92.3,98.0,-1.4,-0.2,1.08,GOOD
1790977308463,1302,1964.0,-99.51735714914764,32000.0,92.3,98.0,-1.4,-0.2,1.08,GOOD
1790977308463,1303,1963.0,-96.58636443062738,32000.0,92.3,98.0,-1.4,-0.2,1.08,GOOD
1790977308463,1304,1960.0,-98.31509743518517,32000.0,92.3,98.0,-1.4,-0.2,1.08,GOOD
1790977308463,1305,1972.0,-100.50332697314417,32000.0,92.3,98.0,-1.4,-0.2,1.08,GOOD
1790977308463,1306,1980.0,-96.33209145873049,32000.0,92.3,98.0,-1.4,-0.2,1.08,GOOD
1790977308463,1307,1984.0,-86.01352124220404,32000.0,92.3,98.0,-1.4,-0.2,1.08,GOOD
1790977308463,1308,1993.0,-76.14145272159655,32000.0,92.3,98.0,-1.4,-0.2,1.08,GOOD
1790977308463,1309,1990.0,-70.48266956185833,32000.0,92.3,98.0,-1.4,-0.2,1.08,GOOD
1790977308463,1310,1987.0,-66.65356770933334,32000.0,92.3,98.0,-1.4,-0.2,1.08,GOOD
1790977308463,1311,1993.0,-61.522384239743,32000.0,92.3,98.0,-1.4,-0.2,1.08,GOOD
1790977308463,1312,1989.0,-56.03950918966654,32000.0,92.3,98.0,-1.4,-0.2,1.08,GOOD
1790977308463,1313,1907.0,-57.28259027283144,32000.0,92.3,98.0,-1.4,-0.2,1.08,GOOD
1790977308463,1314,1988.0,-70.20511635496618,32000.0,92.3,98.0,-1.4,-0.2,1.08,GOOD
1790977308463,1315,1982.0,-83.91502555551136,32000.0,92.3,98.0,-1.4,-0.2,1.08,GOOD
1790977308463,1316,1989.0,-83.79580824564532,32000.0,92.3,98.0,-1.4,-0.2,1.08,GOOD
1790977308463,1317,1887.0,-75.53906532628314,32000.0,92.3,98.0,-1.4,-0.2,1.08,GOOD
1790977308463,1318,1937.0,-76.90241403829046,32000.0,92.3,98.0,-1.4,-0.2,1.08,GOOD
1790977308463,1319,1994.0,-87.91232875919401,32000.0,92.3,98.0,-1.4,-0.2,1.08,GOOD
1790977308463,1320,1982.0,-91.06659476294148,32000.0,92.3,98.0,-1.4,-0.2,1.08,GOOD
1790977308463,1321,2009.0,-78.82838533059194,32000.0,92.3,98.0,-1.4,-0.2,1.08,GOOD
1790977308463,1322,2017.0,-57.35969898227973,32000.0,92.3,98.0,-1.4,-0.2,1.08,GOOD
1790977308463,1323,1999.0,-34.619776218393994,32000.0,92.3,98.0,-1.4,-0.2,1.08,GOOD
1790977308463,1324,1995.0,-18.99308224252549,32000.0,92.3,98.0,-1.4,-0.2,1.08,GOOD
1790977308463,1325,1983.0,-16.542672085101657,32000.0,92.3,98.0,-1.4,-0.2,1.08,GOOD
1790977308464,1326,2000.0,-25.149823606157344,32000.0,92.3,98.0,-1.4,-0.2,1.08,GOOD
1790977308464,1327,1957.0,-36.851261601266124,32000.0,92.3,98.0,-1.4,-0.2,1.08,GOOD
1790977308464,1328,1860.0,-50.52724215801507,32000.0,92.3,98.0,-1.4,-0.2,1.08,GOOD
1790977308464,1329,1647.0,-82.88928395059537,32000.0,92.3,98.0,-1.4,-0.2,1.08,GOOD
1790977308464,1330,1688.0,-151.83485416053932,32000.0,92.3,98.0,-1.4,-0.2,1.08,GOOD
1790977308464,1331,1756.0,-239.92918085565563,32000.0,92.3,98.0,-1.4,-0.2,1.08,GOOD
1790977308464,1332,1886.0,-297.31664352924025,32000.0,92.3,98.0,-1.4,-0.2,1.08,GOOD
1790977308464,1333,1918.0,-287.9839581960711,32000.0,92.3,98.0,-1.4,-0.2,1.08,GOOD
1790977308464,1334,1901.0,-220.2835598428253,32000.0,92.3,98.0,-1.4,-0.2,1.08,GOOD
1790977308464,1335,1886.0,-136.58361153176406,32000.0,92.3,98.0,-1.4,-0.2,1.08,GOOD
1790977308464,1336,1880.0,-79.33671472652131,32000.0,92.3,98.0,-1.4,-0.2,1.08,GOOD
1790977308464,1337,1878.0,-65.76011746274116,32000.0,92.3,98.0,-1.4,-0.2,1.08,GOOD
1790977308464,1338,1948.0,-82.2789479857991,32000.0,92.3,98.0,-1.4,-0.2,1.08,GOOD
1790977308464,1339,2022.0,-93.61679661826076,32000.0,92.3,98.0,-1.4,-0.2,1.08,GOOD
1790977308464,1340,2028.0,-71.16244281070892,32000.0,92.3,98.0,-1.4,-0.2,1.08,GOOD
1790977308464,1341,1942.0,-23.711749945636598,32000.0,92.3,98.0,-1.4,-0.2,1.08,GOOD
1790977308464,1342,2003.0,13.527519931132954,32000.0,92.3,98.0,-1.4,-0.2,1.08,GOOD
1790977308464,1343,1993.0,22.81400419334256,32000.0,92.3,98.0,-1.4,-0.2,1.08,GOOD
1790977308464,1344,1991.0,14.749031078065663,32000.0,92.3,98.0,-1.4,-0.2,1.08,GOOD
1790977308464,1345,1997.0,5.3608620582539075,32000.0,92.3,98.0,-1.4,-0.2,1.08,GOOD
1790977308464,1346,1942.0,1.228902310085192,32000.0,92.3,98.0,-1.4,-0.2,1.08,GOOD
1790977308464,1347,2031.0,0.5548668356437316,32000.0,92.3,98.0,-1.4,-0.2,1.08,GOOD
1790977308464,1348,2025.0,4.094332543533957,32000.0,92.3,98.0,-1.4,-0.2,1.08,GOOD
1790977308464,1349,1882.0,8.581630754492352,32000.0,92.3,98.0,-1.4,-0.2,1.08,GOOD
1790977308464,1350,1762.0,-6.7012892181755,32000.0,92.3,98.0,-1.4,-0.2,1.08,GOOD
