timestamp_ms,sample_seq,ecg_raw,ecg_cleaned,ppg_dc_ir,ecg_bpm,spo2_pct,pitch_deg,roll_deg,motion_g,signal_quality
1790983946704,1,1993.0,78.42732181097229,-40.0,133.6,98.0,-1.7,-0.3,1.07,GOOD
1790983946704,2,2036.0,411.83591603003174,-41.0,133.6,98.0,-1.7,-0.3,1.07,GOOD
1790983946704,3,2016.0,1010.9357478454599,-42.0,133.6,98.0,-1.7,-0.3,1.07,GOOD
1790983946704,4,2202.0,1629.9940363613673,-43.0,133.6,98.0,-1.7,-0.3,1.07,GOOD
1790983946704,5,2135.0,2053.6719349024233,-46.0,133.6,98.0,-1.7,-0.3,1.07,GOOD
1790983946704,6,2157.0,2225.5006441528035,-47.0,133.6,98.0,-1.7,-0.3,1.07,GOOD
1790983946704,7,2172.0,2181.351991960043,-50.0,133.6,98.0,-1.7,-0.3,1.07,GOOD
1790983946704,8,2359.0,2031.7584143361164,-53.0,133.6,98.0,-1.7,-0.3,1.07,GOOD
1790983946704,9,2313.0,1921.289071498334,-55.0,133.6,98.0,-1.7,-0.3,1.07,GOOD
1790983946704,10,2296.0,1921.1580653453364,-60.0,133.6,98.0,-1.7,-0.3,1.07,GOOD
1790983946704,11,2334.0,1982.0959893532213,-61.0,133.6,98.0,-1.7,-0.3,1.07,GOOD
1790983946704,12,2111.0,2003.30435658818,-63.0,133.6,98.0,-1.7,-0.3,1.07,GOOD
1790983946704,13,2124.0,1928.0507624451684,-65.0,133.6,98.0,-1.7,-0.3,1.07,GOOD
1790983946704,14,2077.0,1792.5733511033127,-67.0,133.6,98.0,-1.7,-0.3,1.07,GOOD
1790983946704,15,2077.0,1677.2397077814614,-69.0,133.6,98.0,-1.7,-0.3,1.07,GOOD
1790983946704,16,1962.0,1607.7173097130903,-71.0,133.6,98.0,-1.7,-0.3,1.07,GOOD
1790983946704,17,2026.0,1546.1824517657342,-71.0,133.6,98.0,-1.7,-0.3,1.07,GOOD
1790983946704,18,2025.0,1470.6627947454863,-74.0,133.6,98.0,-1.7,-0.3,1.07,GOOD
1790983946704,19,1985.0,1406.6333065528888,-74.0,133.6,98.0,-1.7,-0.3,1.07,GOOD
1790983946704,20,1810.0,1370.9033595153585,-74.0,133.6,98.0,-1.7,-0.3,1.07,GOOD
1790983946704,21,1826.0,1334.1451590742709,-73.0,133.6,98.0,-1.7,-0.3,1.07,GOOD
1790983946704,22,1838.0,1263.433925099116,-73.0,133.6,98.0,-1.7,-0.3,1.07,GOOD
1790983946704,23,1801.0,1167.266259284378,-71.0,133.6,98.0,-1.7,-0.3,1.07,GOOD
1790983946704,24,1964.0,1088.977256089905,-69.0,133.6,98.0,-1.7,-0.3,1.07,GOOD
1790983946704,25,1917.0,1069.9329245156991,-68.0,133.6,98.0,-1.7,-0.3,1.07,GOOD
1790983946705,26,1937.0,1102.7121714444556,32000.0,133.6,98.0,-1.7,-0.3,1.07,GOOD
1790983946705,27,1948.0,1135.5094450589577,32000.0,133.6,98.0,-1.7,-0.3,1.07,GOOD
1790983946705,28,2192.0,1142.3976326730908,32000.0,133.6,98.0,-1.7,-0.3,1.07,GOOD
1790983946705,29,2163.0,1151.9818953947492,32000.0,133.6,98.0,-1.7,-0.3,1.07,GOOD
1790983946705,30,2174.0,1189.6851022604026,32000.0,133.6,98.0,-1.7,-0.3,1.07,GOOD
1790983946705,31,1905.0,1226.2070846799543,32000.0,133.6,98.0,-1.7,-0.3,1.07,GOOD
1790983946705,32,1960.0,1205.9162648599697,32000.0,133.6,98.0,-1.7,-0.3,1.07,GOOD
1790983946705,33,1925.0,1116.188522673529,32000.0,133.6,98.0,-1.7,-0.3,1.07,GOOD
1790983946705,34,1873.0,998.2020189332791,32000.0,133.6,98.0,-1.7,-0.3,1.07,GOOD
1790983946705,35,1818.0,894.5252900422606,32000.0,133.6,98.0,-1.7,-0.3,1.07,GOOD
1790983946705,36,1908.0,825.2171630420172,32000.0,133.6,98.0,-1.7,-0.3,1.07,GOOD
1790983946705,37,1962.0,797.6662989233306,32000.0,133.6,98.0,-1.7,-0.3,1.07,GOOD
1790983946705,38,1947.0,802.8464997096786,32000.0,133.6,98.0,-1.7,-0.3,1.07,GOOD
1790983946705,39,1881.0,812.6014949555174,32000.0,133.6,98.0,-1.7,-0.3,1.07,GOOD
1790983946705,40,1849.0,801.5199257061962,32000.0,133.6,98.0,-1.7,-0.3,1.07,GOOD
1790983946705,41,1875.0,768.3766676792957,32000.0,133.6,98.0,-1.7,-0.3,1.07,GOOD
1790983946705,42,2190.0,740.5195098199079,32000.0,133.6,98.0,-1.7,-0.3,1.07,GOOD
1790983946705,43,2142.0,753.0105410890956,32000.0,133.6,98.0,-1.7,-0.3,1.07,GOOD
1790983946705,44,2091.0,801.9773742866365,32000.0,133.6,98.0,-1.7,-0.3,1.07,GOOD
1790983946705,45,2086.0,847.1533436231812,32000.0,133.6,98.0,-1.7,-0.3,1.07,GOOD
1790983946705,46,2125.0,865.4287878474656,32000.0,133.6,98.0,-1.7,-0.3,1.07,GOOD
1790983946705,47,2141.0,859.7190166312839,32000.0,133.6,98.0,-1.7,-0.3,1.07,GOOD
1790983946705,48,2109.0,833.2178507144612,32000.0,133.6,98.0,-1.7,-0.3,1.07,GOOD
1790983946705,49,2076.0,788.2719670560339,32000.0,133.6,98.0,-1.7,-0.3,1.07,GOOD
1790983946705,50,1886.0,731.8720990629149,32000.0,133.6,98.0,-1.7,-0.3,1.07,GOOD
1790983946862,51,1960.0,668.9571882422601,32000.0,133.6,98.0,-1.7,-0.3,1.08,GOOD
1790983946862,52,1989.0,606.6315178001367,32000.0,133.6,98.0,-1.7,-0.3,1.08,GOOD
1790983946862,53,1969.0,553.3896531586076,32000.0,133.6,98.0,-1.7,-0.3,1.08,GOOD
1790983946862,54,1792.0,503.73462362877495,32000.0,133.6,98.0,-1.7,-0.3,1.08,GOOD
1790983946862,55,1823.0,448.2436428899294,32000.0,133.6,98.0,-1.7,-0.3,1.08,GOOD
1790983946862,56,1867.0,397.31220637334104,32000.0,133.6,98.0,-1.7,-0.3,1.08,GOOD
1790983946862,57,1879.0,366.2009266301344,32000.0,133.6,98.0,-1.7,-0.3,1.08,GOOD
1790983946862,58,1976.0,351.412977803747,32000.0,133.6,98.0,-1.7,-0.3,1.08,GOOD
1790983946862,59,1927.0,346.3528396412421,32000.0,133.6,98.0,-1.7,-0.3,1.08,GOOD
1790983946862,60,1923.0,352.7058516575937,32000.0,133.6,98.0,-1.7,-0.3,1.08,GOOD
1790983946862,61,2077.0,373.55423109306764,32000.0,133.6,98.0,-1.7,-0.3,1.08,GOOD
1790983946862,62,2024.0,405.4581471454508,32000.0,133.6,98.0,-1.7,-0.3,1.08,GOOD
1790983946862,63,1964.0,424.23668355581196,32000.0,133.6,98.0,-1.7,-0.3,1.08,GOOD
1790983946862,64,1927.0,404.2583124217184,32000.0,133.6,98.0,-1.7,-0.3,1.08,GOOD
1790983946862,65,2153.0,364.83516861663514,32000.0,133.6,98.0,-1.7,-0.3,1.08,GOOD
1790983946862,66,2205.0,359.2455914311647,32000.0,133.6,98.0,-1.7,-0.3,1.08,GOOD
1790983946862,67,2216.0,404.6537963192494,32000.0,133.6,98.0,-1.7,-0.3,1.08,GOOD
1790983946862,68,2079.0,457.25159041975337,32000.0,133.6,98.0,-1.7,-0.3,1.08,GOOD
1790983946862,69,2093.0,468.58719125939973,32000.0,133.6,98.0,-1.7,-0.3,1.08,GOOD
1790983946862,70,2089.0,437.2791599919863,32000.0,133.6,98.0,-1.7,-0.3,1.08,GOOD
1790983946862,71,2142.0,393.59718226324765,32000.0,133.6,98.0,-1.7,-0.3,1.08,GOOD
1790983946862,72,1944.0,350.4469404465716,32000.0,133.6,98.0,-1.7,-0.3,1.08,GOOD
1790983946862,73,1947.0,293.31465079034916,32000.0,133.6,98.0,-1.7,-0.3,1.08,GOOD
1790983946862,74,1948.0,221.92753351663907,32000.0,133.6,98.0,-1.7,-0.3,1.08,GOOD
1790983946862,75,1964.0,163.26988812831635,32000.0,133.6,98.0,-1.7,-0.3,1.08,GOOD
1790983946863,76,1877.0,128.95849736091427,32000.0,133.6,98.0,-1.7,-0.3,1.08,GOOD
1790983946863,77,1861.0,99.0441250923584,32000.0,133.6,98.0,-1.7,-0.3,1.08,GOOD
1790983946863,78,1827.0,57.035455766148004,32000.0,133.6,98.0,-1.7,-0.3,1.08,GOOD
1790983946863,79,2171.0,24.656987954152804,32000.0,133.6,98.0,-1.7,-0.3,1.08,GOOD
1790983946863,80,2130.0,45.196974140959085,32000.0,133.6,98.0,-1.7,-0.3,1.08,GOOD
1790983946863,81,2137.0,118.27763436696618,32000.0,133.6,98.0,-1.7,-0.3,1.08,GOOD
1790983946863,82,2135.0,193.28317650920897,32000.0,133.6,98.0,-1.7,-0.3,1.08,GOOD
1790983946863,83,2035.0,230.22288319212976,32000.0,133.6,98.0,-1.7,-0.3,1.08,GOOD
1790983946863,84,1980.0,217.6718957783722,32000.0,133.6,98.0,-1.7,-0.3,1.08,GOOD
1790983946863,85,2017.0,162.1156903973651,32000.0,133.6,98.0,-1.7,-0.3,1.08,GOOD
1790983946863,86,2029.0,89.62993723758541,32000.0,133.6,98.0,-1.7,-0.3,1.08,GOOD
1790983946863,87,2079.0,34.86086474160601,32000.0,133.6,98.0,-1.7,-0.3,1.08,GOOD
1790983946863,88,2077.0,20.15436289502981,32000.0,133.6,98.0,-1.7,-0.3,1.08,GOOD
1790983946863,89,2072.0,40.60224212570325,32000.0,133.6,98.0,-1.7,-0.3,1.08,GOOD
1790983946863,90,1864.0,59.265099615566,32000.0,133.6,98.0,-1.7,-0.3,1.08,GOOD
1790983946863,91,1923.0,33.1212968053911,32000.0,133.6,98.0,-1.7,-0.3,1.08,GOOD
1790983946863,92,1960.0,-35.26176053168793,32000.0,133.6,98.0,-1.7,-0.3,1.08,GOOD
1790983946863,93,1968.0,-98.68682470285817,32000.0,133.6,98.0,-1.7,-0.3,1.08,GOOD
1790983946863,94,2297.0,-111.62141571597343,32000.0,133.6,98.0,-1.7,-0.3,1.08,GOOD
1790983946863,95,2272.0,-53.064858830135506,32000.0,133.6,98.0,-1.7,-0.3,1.08,GOOD
1790983946863,96,2298.0,53.82612081996384,32000.0,133.6,98.0,-1.7,-0.3,1.08,GOOD
1790983946863,97,2309.0,154.50363626826135,32000.0,133.6,98.0,-1.7,-0.3,1.08,GOOD
1790983946863,98,1998.0,202.31974645370877,32000.0,133.6,98.0,-1.7,-0.3,1.08,GOOD
1790983946863,99,1934.0,163.88746973079682,32000.0,133.6,98.0,-1.7,-0.3,1.08,GOOD
1790983946863,100,1899.0,40.38909529454382,32000.0,133.6,98.0,-1.7,-0.3,1.08,GOOD
1790983947095,101,1900.0,-115.1140043532597,32000.0,161.6,98.0,-1.6,-0.3,1.08,GOOD
1790983947095,102,1960.0,-236.13395193264154,32000.0,161.6,98.0,-1.6,-0.3,1.08,GOOD
1790983947095,103,1930.0,-285.80934387123426,32000.0,161.6,98.0,-1.6,-0.3,1.08,GOOD
1790983947095,104,1886.0,-275.8567893598844,32000.0,161.6,98.0,-1.6,-0.3,1.08,GOOD
1790983947095,105,1869.0,-252.14066319520904,32000.0,161.6,98.0,-1.6,-0.3,1.08,GOOD
1790983947095,106,2032.0,-245.37304626630282,32000.0,161.6,98.0,-1.6,-0.3,1.08,GOOD
1790983947095,107,2084.0,-242.1131726629336,32000.0,161.6,98.0,-1.6,-0.3,1.08,GOOD
1790983947095,108,2095.0,-216.25033137814333,32000.0,161.6,98.0,-1.6,-0.3,1.08,GOOD
1790983947095,109,1885.0,-176.80728466809103,32000.0,161.6,98.0,-1.6,-0.3,1.08,GOOD
1790983947095,110,1890.0,-164.9722804609491,32000.0,161.6,98.0,-1.6,-0.3,1.08,GOOD
1790983947095,111,1907.0,-202.2535964096773,32000.0,161.6,98.0,-1.6,-0.3,1.08,GOOD
1790983947095,112,1928.0,-266.05239267815796,32000.0,161.6,98.0,-1.6,-0.3,1.08,GOOD
1790983947095,113,1855.0,-322.6246377763447,32000.0,161.6,98.0,-1.6,-0.3,1.08,GOOD
1790983947095,114,1844.0,-357.3080429308236,32000.0,161.6,98.0,-1.6,-0.3,1.08,GOOD
1790983947095,115,1838.0,-372.2410101307495,32000.0,161.6,98.0,-1.6,-0.3,1.08,GOOD
1790983947095,116,1843.0,-377.690964850349,32000.0,161.6,98.0,-1.6,-0.3,1.08,GOOD
1790983947095,117,2157.0,-374.04735447017543,32000.0,161.6,98.0,-1.6,-0.3,1.08,GOOD
1790983947095,118,2117.0,-339.3358262631297,32000.0,161.6,98.0,-1.6,-0.3,1.08,GOOD
1790983947095,119,2095.0,-267.1025859331636,32000.0,161.6,98.0,-1.6,-0.3,1.08,GOOD
1790983947095,120,2079.0,-189.5084804082851,32000.0,161.6,98.0,-1.6,-0.3,1.08,GOOD
1790983947095,121,2118.0,-140.48608752730803,32000.0,161.6,98.0,-1.6,-0.3,1.08,GOOD
1790983947095,122,2144.0,-129.89841827722336,32000.0,161.6,98.0,-1.6,-0.3,1.08,GOOD
1790983947095,123,2147.0,-147.03452280672718,32000.0,161.6,98.0,-1.6,-0.3,1.08,GOOD
1790983947095,124,2159.0,-168.70296962477866,32000.0,161.6,98.0,-1.6,-0.3,1.08,GOOD
1790983947095,125,2193.0,-171.70159207883,32000.0,161.6,98.0,-1.6,-0.3,1.08,GOOD
1790983947096,126,2207.0,-150.5566135381518,32000.0,161.6,98.0,-1.6,-0.3,1.08,GOOD
1790983947096,127,2212.0,-123.8790190442173,32000.0,161.6,98.0,-1.6,-0.3,1.08,GOOD
1790983947096,128,2220.0,-113.69251456191093,32000.0,161.6,98.0,-1.6,-0.3,1.08,GOOD
1790983947096,129,1892.0,-133.36412818532958,32000.0,161.6,98.0,-1.6,-0.3,1.08,GOOD
1790983947096,130,1933.0,-193.48181981686224,32000.0,161.6,98.0,-1.6,-0.3,1.08,GOOD
1790983947096,131,1947.0,-282.4330193906879,32000.0,161.6,98.0,-1.6,-0.3,1.08,GOOD
1790983947096,132,1957.0,-365.86012871135716,32000.0,161.6,98.0,-1.6,-0.3,1.08,GOOD
1790983947096,133,1943.0,-422.76745473334125,32000.0,161.6,98.0,-1.6,-0.3,1.08,GOOD
1790983947096,134,1978.0,-447.543580520835,32000.0,161.6,98.0,-1.6,-0.3,1.08,GOOD
1790983947096,135,1995.0,-435.87314565298226,32000.0,161.6,98.0,-1.6,-0.3,1.08,GOOD
1790983947096,136,2012.0,-396.9174979418543,32000.0,161.6,98.0,-1.6,-0.3,1.08,GOOD
1790983947096,137,2178.0,-353.1435342790422,32000.0,161.6,98.0,-1.6,-0.3,1.08,GOOD
1790983947096,138,2137.0,-316.1284423423471,32000.0,161.6,98.0,-1.6,-0.3,1.08,GOOD
1790983947096,139,2138.0,-284.47574940669483,32000.0,161.6,98.0,-1.6,-0.3,1.08,GOOD
1790983947096,140,2379.0,-246.43120996965058,32000.0,161.6,98.0,-1.6,-0.3,1.08,GOOD
1790983947096,141,2362.0,-183.25765553921457,32000.0,161.6,98.0,-1.6,-0.3,1.08,GOOD
1790983947096,142,2352.0,-106.56009333039887,32000.0,161.6,98.0,-1.6,-0.3,1.08,GOOD
1790983947096,143,2353.0,-56.004767704485815,32000.0,161.6,98.0,-1.6,-0.3,1.08,GOOD
1790983947096,144,2290.0,-47.09728284733618,32000.0,161.6,98.0,-1.6,-0.3,1.08,GOOD
1790983947096,145,2320.0,-63.38883522009961,32000.0,161.6,98.0,-1.6,-0.3,1.08,GOOD
1790983947096,146,2309.0,-85.93143635740836,32000.0,161.6,98.0,-1.6,-0.3,1.08,GOOD
1790983947096,147,2386.0,-106.5073864682453,32000.0,161.6,98.0,-1.6,-0.3,1.08,GOOD
1790983947096,148,2033.0,-133.26236815897698,32000.0,161.6,98.0,-1.6,-0.3,1.08,GOOD
1790983947096,149,2116.0,-186.01278041351713,32000.0,161.6,98.0,-1.6,-0.3,1.08,GOOD
1790983947096,150,2151.0,-257.12618478096584,32000.0,161.6,98.0,-1.6,-0.3,1.08,GOOD
1790983947177,151,2155.0,-311.335311151616,32000.0,161.6,98.0,-1.7,-0.2,1.09,GOOD
1790983947177,152,1904.0,-346.9889296720554,32000.0,161.6,98.0,-1.7,-0.2,1.09,GOOD
1790983947177,153,1950.0,-395.7974411617232,32000.0,161.6,98.0,-1.7,-0.2,1.09,GOOD
1790983947177,154,1979.0,-457.1858109470062,32000.0,161.6,98.0,-1.7,-0.2,1.09,GOOD
1790983947177,155,1973.0,-497.7335670798936,32000.0,161.6,98.0,-1.7,-0.2,1.09,GOOD
1790983947177,156,1917.0,-511.0764015454291,32000.0,161.6,98.0,-1.7,-0.2,1.09,GOOD
1790983947177,157,1887.0,-522.9121685908856,32000.0,161.6,98.0,-1.7,-0.2,1.09,GOOD
1790983947177,158,1894.0,-545.632204779409,32000.0,161.6,98.0,-1.7,-0.2,1.09,GOOD
1790983947177,159,2118.0,-556.5494103738433,32000.0,161.6,98.0,-1.7,-0.2,1.09,GOOD
1790983947177,160,2081.0,-526.0213287241806,32000.0,161.6,98.0,-1.7,-0.2,1.09,GOOD
1790983947177,161,2044.0,-466.05176384901387,32000.0,161.6,98.0,-1.7,-0.2,1.09,GOOD
1790983947177,162,2028.0,-420.0201404468829,32000.0,161.6,98.0,-1.7,-0.2,1.09,GOOD
1790983947177,163,2090.0,-404.18721302290595,32000.0,161.6,98.0,-1.7,-0.2,1.09,GOOD
1790983947177,164,2086.0,-400.10443690739123,32000.0,161.6,98.0,-1.7,-0.2,1.09,GOOD
1790983947177,165,2061.0,-396.173799122965,32000.0,161.6,98.0,-1.7,-0.2,1.09,GOOD
1790983947177,166,2049.0,-400.34851246707456,32000.0,161.6,98.0,-1.7,-0.2,1.09,GOOD
1790983947177,167,2110.0,-412.6472222834465,32000.0,161.6,98.0,-1.7,-0.2,1.09,GOOD
1790983947177,168,2149.0,-413.47535823633285,32000.0,161.6,98.0,-1.7,-0.2,1.09,GOOD
1790983947177,169,2170.0,-389.67583476214355,32000.0,161.6,98.0,-1.7,-0.2,1.09,GOOD
1790983947177,170,2166.0,-354.0728437406231,32000.0,161.6,98.0,-1.7,-0.2,1.09,GOOD
1790983947177,171,1728.0,-345.9364483490234,32000.0,161.6,98.0,-1.7,-0.2,1.09,GOOD
1790983947177,172,1762.0,-408.7184845820186,32000.0,161.6,98.0,-1.7,-0.2,1.09,GOOD
1790983947177,173,1772.0,-531.7218726356928,32000.0,161.6,98.0,-1.7,-0.2,1.09,GOOD
1790983947177,174,1770.0,-652.1267185534,32000.0,161.6,98.0,-1.7,-0.2,1.09,GOOD
1790983947177,175,1857.0,-724.6070454445384,32000.0,161.6,98.0,-1.7,-0.2,1.09,GOOD
1790983947305,176,1862.0,-737.6292910009215,32000.0,173.9,98.0,-1.6,-0.3,1.07,GOOD
1790983947305,177,1907.0,-696.3333852796036,32000.0,173.9,98.0,-1.6,-0.3,1.07,GOOD
1790983947305,178,1918.0,-623.3336351679293,32000.0,173.9,98.0,-1.6,-0.3,1.07,GOOD
1790983947305,179,1922.0,-555.4968209804624,32000.0,173.9,98.0,-1.6,-0.3,1.07,GOOD
1790983947305,180,1887.0,-524.7980582652658,32000.0,173.9,98.0,-1.6,-0.3,1.07,GOOD
1790983947305,181,1874.0,-534.6949479422683,32000.0,173.9,98.0,-1.6,-0.3,1.07,GOOD
1790983947305,182,1870.0,-559.2478906025926,32000.0,173.9,98.0,-1.6,-0.3,1.07,GOOD
1790983947305,183,2178.0,-560.075586001013,32000.0,173.9,98.0,-1.6,-0.3,1.07,GOOD
1790983947305,184,2165.0,-509.562612129568,32000.0,173.9,98.0,-1.6,-0.3,1.07,GOOD
1790983947305,185,2165.0,-422.3524515235831,32000.0,173.9,98.0,-1.6,-0.3,1.07,GOOD
1790983947305,186,2180.0,-340.5071341807432,32000.0,173.9,98.0,-1.6,-0.3,1.07,GOOD
1790983947305,187,2050.0,-288.5411074151492,32000.0,173.9,98.0,-1.6,-0.3,1.07,GOOD
1790983947305,188,2052.0,-276.36138706521126,32000.0,173.9,98.0,-1.6,-0.3,1.07,GOOD
1790983947305,189,2042.0,-308.25235294287387,32000.0,173.9,98.0,-1.6,-0.3,1.07,GOOD
1790983947305,190,2054.0,-368.4786889339039,32000.0,173.9,98.0,-1.6,-0.3,1.07,GOOD
1790983947305,191,1911.0,-428.2612306602008,32000.0,173.9,98.0,-1.6,-0.3,1.07,GOOD
1790983947305,192,1948.0,-468.2992010679517,32000.0,173.9,98.0,-1.6,-0.3,1.07,GOOD
1790983947305,193,1953.0,-484.91575737388234,32000.0,173.9,98.0,-1.6,-0.3,1.07,GOOD
1790983947305,194,1942.0,-489.1866974928147,32000.0,173.9,98.0,-1.6,-0.3,1.07,GOOD
1790983947305,195,1861.0,-502.1396016907327,32000.0,173.9,98.0,-1.6,-0.3,1.07,GOOD
1790983947305,196,1896.0,-529.9378164786342,32000.0,173.9,98.0,-1.6,-0.3,1.07,GOOD
1790983947305,197,1918.0,-550.5469962793235,32000.0,173.9,98.0,-1.6,-0.3,1.07,GOOD
1790983947305,198,1909.0,-545.0086321506521,32000.0,173.9,98.0,-1.6,-0.3,1.07,GOOD
1790983947305,199,1742.0,-533.6750358826287,32000.0,173.9,98.0,-1.6,-0.3,1.07,GOOD
1790983947305,200,1704.0,-556.8434629085918,32000.0,173.9,98.0,-1.6,-0.3,1.07,GOOD
1790983947403,201,1693.0,-618.9016416341625,32000.0,173.9,98.0,-1.7,-0.3,1.08,GOOD
1790983947403,202,2294.0,-658.1768238039324,32000.0,173.9,98.0,-1.7,-0.3,1.08,GOOD
1790983947403,203,2273.0,-592.7423686444952,32000.0,173.9,98.0,-1.7,-0.3,1.08,GOOD
1790983947403,204,2276.0,-425.90078953275736,32000.0,173.9,98.0,-1.7,-0.3,1.08,GOOD
1790983947403,205,2294.0,-248.2165147171954,32000.0,173.9,98.0,-1.7,-0.3,1.08,GOOD
1790983947403,206,2120.0,-133.62119772527865,32000.0,173.9,98.0,-1.7,-0.3,1.08,GOOD
1790983947403,207,2136.0,-106.35391915350213,32000.0,173.9,98.0,-1.7,-0.3,1.08,GOOD
1790983947403,208,2122.0,-156.43873854412925,32000.0,173.9,98.0,-1.7,-0.3,1.08,GOOD
1790983947403,209,2109.0,-244.8583353457267,32000.0,173.9,98.0,-1.7,-0.3,1.08,GOOD
1790983947403,210,1968.0,-327.9643757922665,32000.0,173.9,98.0,-1.7,-0.3,1.08,GOOD
1790983947403,211,2007.0,-381.06849044305625,32000.0,173.9,98.0,-1.7,-0.3,1.08,GOOD
1790983947403,212,2016.0,-400.45357786033327,32000.0,173.9,98.0,-1.7,-0.3,1.08,GOOD
1790983947403,213,1808.0,-409.51049731245797,32000.0,173.9,98.0,-1.7,-0.3,1.08,GOOD
1790983947403,214,1828.0,-448.11608070634287,32000.0,173.9,98.0,-1.7,-0.3,1.08,GOOD
1790983947403,215,1868.0,-516.1538177769742,32000.0,173.9,98.0,-1.7,-0.3,1.08,GOOD
1790983947403,216,1895.0,-564.5467929982653,32000.0,173.9,98.0,-1.7,-0.3,1.08,GOOD
1790983947403,217,2063.0,-556.8433747144157,32000.0,173.9,98.0,-1.7,-0.3,1.08,GOOD
1790983947403,218,1994.0,-502.0499125248949,32000.0,173.9,98.0,-1.7,-0.3,1.08,GOOD
1790983947403,219,1978.0,-440.1329279249527,32000.0,173.9,98.0,-1.7,-0.3,1.08,GOOD
1790983947403,220,2268.0,-391.20519171425866,32000.0,173.9,98.0,-1.7,-0.3,1.08,GOOD
1790983947403,221,2235.0,-329.50713164207036,32000.0,173.9,98.0,-1.7,-0.3,1.08,GOOD
1790983947403,222,2204.0,-246.66394660796692,32000.0,173.9,98.0,-1.7,-0.3,1.08,GOOD
1790983947403,223,2156.0,-183.7559142562547,32000.0,173.9,98.0,-1.7,-0.3,1.08,GOOD
1790983947403,224,2076.0,-174.5279779353613,32000.0,173.9,98.0,-1.7,-0.3,1.08,GOOD
1790983947403,225,2108.0,-210.01020483608136,32000.0,173.9,98.0,-1.7,-0.3,1.08,GOOD
1790983947515,226,2125.0,-255.85849713050163,32000.0,173.9,98.0,-1.7,-0.3,1.08,GOOD
1790983947515,227,2121.0,-285.6621625777559,32000.0,173.9,98.0,-1.7,-0.3,1.08,GOOD
1790983947515,228,2037.0,-299.95380694046645,32000.0,173.9,98.0,-1.7,-0.3,1.08,GOOD
1790983947515,229,2078.0,-310.6360540760465,32000.0,173.9,98.0,-1.7,-0.3,1.08,GOOD
1790983947515,230,2107.0,-316.25012522936265,32000.0,173.9,98.0,-1.7,-0.3,1.08,GOOD
1790983947515,231,2129.0,-308.5312727001776,32000.0,173.9,98.0,-1.7,-0.3,1.08,GOOD
1790983947515,232,1967.0,-298.7122194958272,32000.0,173.9,98.0,-1.7,-0.3,1.08,GOOD
1790983947515,233,1972.0,-312.23884090099864,32000.0,173.9,98.0,-1.7,-0.3,1.08,GOOD
1790983947515,234,1977.0,-350.4892783577299,32000.0,173.9,98.0,-1.7,-0.3,1.08,GOOD
1790983947515,235,1990.0,-386.6757759393988,32000.0,173.9,98.0,-1.7,-0.3,1.08,GOOD
1790983947515,236,1904.0,-406.87939582985837,32000.0,173.9,98.0,-1.7,-0.3,1.08,GOOD
1790983947515,237,1851.0,-425.7842735377064,32000.0,173.9,98.0,-1.7,-0.3,1.08,GOOD
1790983947515,238,1825.0,-457.4501343698689,32000.0,173.9,98.0,-1.7,-0.3,1.08,GOOD
1790983947515,239,2326.0,-474.172503784711,32000.0,173.9,98.0,-1.7,-0.3,1.08,GOOD
1790983947515,240,2276.0,-418.73228855263255,32000.0,173.9,98.0,-1.7,-0.3,1.08,GOOD
1790983947515,241,2259.0,-291.3088838264668,32000.0,173.9,98.0,-1.7,-0.3,1.08,GOOD
1790983947515,242,2236.0,-163.30283988185568,32000.0,173.9,98.0,-1.7,-0.3,1.08,GOOD
1790983947515,243,2056.0,-95.09872013742154,32000.0,173.9,98.0,-1.7,-0.3,1.08,GOOD
1790983947515,244,2071.0,-104.20990871869546,32000.0,173.9,98.0,-1.7,-0.3,1.08,GOOD
1790983947515,245,2074.0,-173.24922804182296,32000.0,173.9,98.0,-1.7,-0.3,1.08,GOOD
1790983947515,246,2105.0,-258.3042221266536,32000.0,173.9,98.0,-1.7,-0.3,1.08,GOOD
1790983947515,247,1908.0,-322.1466280522566,32000.0,173.9,98.0,-1.7,-0.3,1.08,GOOD
1790983947515,248,1942.0,-358.6889112839087,32000.0,173.9,98.0,-1.7,-0.3,1.08,GOOD
1790983947515,249,1936.0,-377.70430102685793,32000.0,173.9,98.0,-1.7,-0.3,1.08,GOOD
1790983947515,250,2167.0,-381.1911861965692,32000.0,173.9,98.0,-1.7,-0.3,1.08,GOOD
1790983947624,251,2209.0,-358.7037544878348,32000.0,173.5,98.0,-1.6,-0.3,1.07,GOOD
1790983947624,252,2269.0,-300.315589829901,32000.0,173.5,98.0,-1.6,-0.3,1.07,GOOD
1790983947624,253,2308.0,-209.84386771476503,32000.0,173.5,98.0,-1.6,-0.3,1.07,GOOD
1790983947624,254,2584.0,-97.46249131338939,32000.0,173.5,98.0,-1.6,-0.3,1.07,GOOD
1790983947624,255,2498.0,20.9342856036535,32000.0,173.5,98.0,-1.6,-0.3,1.07,GOOD
1790983947624,256,2469.0,109.08376886499794,32000.0,173.5,98.0,-1.6,-0.3,1.07,GOOD
1790983947624,257,1879.0,116.17439677380831,32000.0,173.5,98.0,-1.6,-0.3,1.07,GOOD
1790983947624,258,1865.0,9.596105066117968,32000.0,173.5,98.0,-1.6,-0.3,1.07,GOOD
1790983947624,259,1781.0,-183.1237544863103,32000.0,173.5,98.0,-1.6,-0.3,1.07,GOOD
1790983947624,260,1723.0,-392.4278620306241,32000.0,173.5,98.0,-1.6,-0.3,1.07,GOOD
1790983947624,261,2051.0,-553.7646998899127,32000.0,173.5,98.0,-1.6,-0.3,1.07,GOOD
1790983947624,262,2132.0,-602.6956790082568,32000.0,173.5,98.0,-1.6,-0.3,1.07,GOOD
1790983947624,263,2174.0,-508.5837333846503,32000.0,173.5,98.0,-1.6,-0.3,1.07,GOOD
1790983947624,264,2173.0,-329.0744808681903,32000.0,173.5,98.0,-1.6,-0.3,1.07,GOOD
1790983947624,265,1987.0,-178.34947285058155,32000.0,173.5,98.0,-1.6,-0.3,1.07,GOOD
1790983947624,266,2015.0,-142.65557902656175,32000.0,173.5,98.0,-1.6,-0.3,1.07,GOOD
1790983947624,267,2065.0,-209.67063075006163,32000.0,173.5,98.0,-1.6,-0.3,1.07,GOOD
1790983947624,268,2094.0,-288.663339841073,32000.0,173.5,98.0,-1.6,-0.3,1.07,GOOD
1790983947624,269,1845.0,-320.85584033180555,32000.0,173.5,98.0,-1.6,-0.3,1.07,GOOD
1790983947624,270,1835.0,-334.7983376139762,32000.0,173.5,98.0,-1.6,-0.3,1.07,GOOD
1790983947624,271,1847.0,-375.8969949702089,32000.0,173.5,98.0,-1.6,-0.3,1.07,GOOD
1790983947624,272,1886.0,-435.7499171486895,32000.0,173.5,98.0,-1.6,-0.3,1.07,GOOD
1790983947624,273,1739.0,-480.6049517166596,32000.0,173.5,98.0,-1.6,-0.3,1.07,GOOD
1790983947624,274,1707.0,-504.2711340430742,32000.0,173.5,98.0,-1.6,-0.3,1.07,GOOD
1790983947624,275,1673.0,-524.4790380020327,32000.0,173.5,98.0,-1.6,-0.3,1.07,GOOD
1790983947737,276,1672.0,-553.6768386395614,32000.0,173.5,98.0,-1.6,-0.3,1.08,GOOD
1790983947737,277,2322.0,-563.4096699260842,32000.0,173.5,98.0,-1.6,-0.3,1.08,GOOD
1790983947737,278,2314.0,-482.4968736821476,32000.0,173.5,98.0,-1.6,-0.3,1.08,GOOD
1790983947737,279,2301.0,-295.39239517990006,32000.0,173.5,98.0,-1.6,-0.3,1.08,GOOD
1790983947737,280,2206.0,-89.46795643324762,32000.0,173.5,98.0,-1.6,-0.3,1.08,GOOD
1790983947737,281,2251.0,40.711604848013735,32000.0,173.5,98.0,-1.6,-0.3,1.08,GOOD
1790983947737,282,2285.0,69.97859159328111,32000.0,173.5,98.0,-1.6,-0.3,1.08,GOOD
1790983947737,283,2325.0,33.59498822179194,32000.0,173.5,98.0,-1.6,-0.3,1.08,GOOD
1790983947737,284,1976.0,-25.219490039709946,32000.0,173.5,98.0,-1.6,-0.3,1.08,GOOD
1790983947737,285,2001.0,-93.37934104912162,32000.0,173.5,98.0,-1.6,-0.3,1.08,GOOD
1790983947737,286,1998.0,-164.9424221168022,32000.0,173.5,98.0,-1.6,-0.3,1.08,GOOD
1790983947737,287,1994.0,-226.79355919264594,32000.0,173.5,98.0,-1.6,-0.3,1.08,GOOD
1790983947737,288,2028.0,-276.328668751677,32000.0,173.5,98.0,-1.6,-0.3,1.08,GOOD
1790983947737,289,2050.0,-306.7848545128884,32000.0,173.5,98.0,-1.6,-0.3,1.08,GOOD
1790983947737,290,2066.0,-298.0059462721629,32000.0,173.5,98.0,-1.6,-0.3,1.08,GOOD
1790983947737,291,2051.0,-249.4970668058748,32000.0,173.5,98.0,-1.6,-0.3,1.08,GOOD
1790983947737,292,2296.0,-188.23387203057732,32000.0,173.5,98.0,-1.6,-0.3,1.08,GOOD
1790983947737,293,2278.0,-133.14046626667488,32000.0,173.5,98.0,-1.6,-0.3,1.08,GOOD
1790983947737,294,2284.0,-84.0863964729748,32000.0,173.5,98.0,-1.6,-0.3,1.08,GOOD
1790983947737,295,2390.0,-31.304674484876777,32000.0,173.5,98.0,-1.6,-0.3,1.08,GOOD
1790983947737,296,2346.0,33.99483734032216,32000.0,173.5,98.0,-1.6,-0.3,1.08,GOOD
1790983947737,297,2301.0,90.345584747082,32000.0,173.5,98.0,-1.6,-0.3,1.08,GOOD
1790983947737,298,2293.0,98.3827215628115,32000.0,173.5,98.0,-1.6,-0.3,1.08,GOOD
1790983947737,299,2402.0,62.17383447892907,32000.0,173.5,98.0,-1.6,-0.3,1.08,GOOD
1790983947737,300,2415.0,36.0004604789696,32000.0,173.5,98.0,-1.6,-0.3,1.08,GOOD
1790983947856,301,2404.0,56.52208148922868,32000.0,173.5,98.0,-1.6,-0.3,1.09,GOOD
1790983947856,302,2397.0,101.34419562740314,32000.0,173.5,98.0,-1.6,-0.3,1.09,GOOD
1790983947856,303,2315.0,123.33377696534836,32000.0,173.5,98.0,-1.6,-0.3,1.09,GOOD
1790983947856,304,2374.0,104.3530599273023,32000.0,173.5,98.0,-1.6,-0.3,1.09,GOOD
1790983947856,305,2384.0,71.30115164398237,32000.0,173.5,98.0,-1.6,-0.3,1.09,GOOD
1790983947856,306,2413.0,59.83458809609229,32000.0,173.5,98.0,-1.6,-0.3,1.09,GOOD
1790983947856,307,2336.0,70.3732593099603,32000.0,173.5,98.0,-1.6,-0.3,1.09,GOOD
1790983947856,308,2314.0,73.79435192098381,32000.0,173.5,98.0,-1.6,-0.3,1.09,GOOD
1790983947856,309,2302.0,53.159265740486326,32000.0,173.5,98.0,-1.6,-0.3,1.09,GOOD
1790983947856,310,2279.0,20.84815266518718,32000.0,173.5,98.0,-1.6,-0.3,1.09,GOOD
1790983947856,311,1840.0,-22.715953023125703,32000.0,173.5,98.0,-1.6,-0.3,1.09,GOOD
1790983947856,312,1842.0,-112.86372588218566,32000.0,173.5,98.0,-1.6,-0.3,1.09,GOOD
1790983947856,313,1850.0,-255.86328144133776,32000.0,173.5,98.0,-1.6,-0.3,1.09,GOOD
1790983947856,314,1868.0,-395.7452729245273,32000.0,173.5,98.0,-1.6,-0.3,1.09,GOOD
1790983947856,315,2060.0,-469.9736896129226,32000.0,173.5,98.0,-1.6,-0.3,1.09,GOOD
1790983947856,316,2025.0,-452.68240774820765,32000.0,173.5,98.0,-1.6,-0.3,1.09,GOOD
1790983947856,317,2008.0,-369.91917930336933,32000.0,173.5,98.0,-1.6,-0.3,1.09,GOOD
1790983947856,318,2195.0,-274.91908019437034,32000.0,173.5,98.0,-1.6,-0.3,1.09,GOOD
1790983947856,319,2183.0,-196.20948869408815,32000.0,173.5,98.0,-1.6,-0.3,1.09,GOOD
1790983947856,320,2172.0,-140.0865141799466,32000.0,173.5,98.0,-1.6,-0.3,1.09,GOOD
1790983947856,321,2164.0,-110.25733926191045,32000.0,173.5,98.0,-1.6,-0.3,1.09,GOOD
1790983947856,322,1990.0,-106.62192059424841,32000.0,173.5,98.0,-1.6,-0.3,1.09,GOOD
1790983947856,323,2005.0,-131.9569199127141,32000.0,173.5,98.0,-1.6,-0.3,1.09,GOOD
1790983947856,324,2011.0,-183.21997992493988,32000.0,173.5,98.0,-1.6,-0.3,1.09,GOOD
1790983947856,325,1674.0,-253.46347745356084,32000.0,173.5,98.0,-1.6,-0.3,1.09,GOOD
1790983948126,326,1663.0,-349.24542441947375,36.0,173.5,98.0,-1.7,-0.3,1.08,GOOD
1790983948126,327,1673.0,-459.1190328643978,37.0,173.5,98.0,-1.7,-0.3,1.08,GOOD
1790983948126,328,1659.0,-543.8645180762396,37.0,173.5,98.0,-1.7,-0.3,1.08,GOOD
1790983948126,329,2011.0,-572.455876816344,37.0,173.5,98.0,-1.7,-0.3,1.08,GOOD
1790983948126,330,2030.0,-526.3750855661127,39.0,173.5,98.0,-1.7,-0.3,1.08,GOOD
1790983948126,331,2040.0,-412.9975118994232,42.0,173.5,98.0,-1.7,-0.3,1.08,GOOD
1790983948126,332,2028.0,-278.20980916656714,45.0,173.5,98.0,-1.7,-0.3,1.08,GOOD
1790983948126,333,1719.0,-185.55114277860028,48.0,173.5,98.0,-1.7,-0.3,1.08,GOOD
1790983948126,334,1757.0,-190.30549830935473,50.0,173.5,98.0,-1.7,-0.3,1.08,GOOD
1790983948126,335,1770.0,-288.9720249462905,54.0,173.5,98.0,-1.7,-0.3,1.08,GOOD
1790983948126,336,1757.0,-409.30596665122687,57.0,173.5,98.0,-1.7,-0.3,1.08,GOOD
1790983948126,337,1759.0,-480.3779851988151,60.0,173.5,98.0,-1.7,-0.3,1.08,GOOD
1790983948126,338,1773.0,-482.6914140145495,64.0,173.5,98.0,-1.7,-0.3,1.08,GOOD
1790983948126,339,1799.0,-442.34116431724595,67.0,173.5,98.0,-1.7,-0.3,1.08,GOOD
1790983948126,340,2091.0,-388.5581126374273,69.0,173.5,98.0,-1.7,-0.3,1.08,GOOD
1790983948126,341,2039.0,-320.27813977064534,71.0,173.5,98.0,-1.7,-0.3,1.08,GOOD
1790983948126,342,2011.0,-235.65885661492138,73.0,173.5,98.0,-1.7,-0.3,1.08,GOOD
1790983948126,343,2103.0,-153.90754854304052,74.0,173.5,98.0,-1.7,-0.3,1.08,GOOD
1790983948126,344,2091.0,-91.17026515963528,80.0,173.5,98.0,-1.7,-0.3,1.08,GOOD
1790983948126,345,2081.0,-58.063415481925986,80.0,173.5,98.0,-1.7,-0.3,1.08,GOOD
1790983948126,346,2068.0,-60.23983583887514,79.0,173.5,98.0,-1.7,-0.3,1.08,GOOD
1790983948126,347,1919.0,-86.98959305018357,79.0,173.5,98.0,-1.7,-0.3,1.08,GOOD
1790983948126,348,1941.0,-122.49923954416388,78.0,173.5,98.0,-1.7,-0.3,1.08,GOOD
1790983948126,349,1931.0,-157.25069202132806,77.0,173.5,98.0,-1.7,-0.3,1.08,GOOD
1790983948126,350,1934.0,-189.08490508260454,74.0,173.5,98.0,-1.7,-0.3,1.08,GOOD
1790983948127,351,1916.0,-219.01511737166592,32000.0,173.5,98.0,-1.7,-0.3,1.08,GOOD
1790983948127,352,1954.0,-237.75314128880933,32000.0,173.5,98.0,-1.7,-0.3,1.08,GOOD
1790983948127,353,1974.0,-228.91912418613595,32000.0,173.5,98.0,-1.7,-0.3,1.08,GOOD
1790983948127,354,1985.0,-193.96670485665942,32000.0,173.5,98.0,-1.7,-0.3,1.08,GOOD
1790983948127,355,1757.0,-167.4106090599298,32000.0,173.5,98.0,-1.7,-0.3,1.08,GOOD
1790983948127,356,1764.0,-190.75866995657478,32000.0,173.5,98.0,-1.7,-0.3,1.08,GOOD
1790983948127,357,1768.0,-258.9818004459476,32000.0,173.5,98.0,-1.7,-0.3,1.08,GOOD
1790983948127,358,1781.0,-322.9598754445915,32000.0,173.5,98.0,-1.7,-0.3,1.08,GOOD
1790983948127,359,2018.0,-341.3005899920656,32000.0,173.5,98.0,-1.7,-0.3,1.08,GOOD
1790983948127,360,1965.0,-302.93671869455756,32000.0,173.5,98.0,-1.7,-0.3,1.08,GOOD
1790983948127,361,1945.0,-230.94836411702187,32000.0,173.5,98.0,-1.7,-0.3,1.08,GOOD
1790983948127,362,2022.0,-160.96813776912586,32000.0,173.5,98.0,-1.7,-0.3,1.08,GOOD
1790983948127,363,2035.0,-105.791109409716,32000.0,173.5,98.0,-1.7,-0.3,1.08,GOOD
1790983948127,364,2026.0,-67.2707040178467,32000.0,173.5,98.0,-1.7,-0.3,1.08,GOOD
1790983948127,365,2035.0,-53.09630060221841,32000.0,173.5,98.0,-1.7,-0.3,1.08,GOOD
1790983948127,366,1935.0,-63.02941402904476,32000.0,173.5,98.0,-1.7,-0.3,1.08,GOOD
1790983948127,367,1960.0,-84.66402774757674,32000.0,173.5,98.0,-1.7,-0.3,1.08,GOOD
1790983948127,368,1952.0,-103.52211500523046,32000.0,173.5,98.0,-1.7,-0.3,1.08,GOOD
1790983948127,369,1953.0,-115.2006247378753,32000.0,173.5,98.0,-1.7,-0.3,1.08,GOOD
1790983948127,370,1923.0,-127.3095998348063,32000.0,173.5,98.0,-1.7,-0.3,1.08,GOOD
1790983948127,371,1962.0,-141.38694306958286,32000.0,173.5,98.0,-1.7,-0.3,1.08,GOOD
1790983948127,372,1983.0,-143.43633159873593,32000.0,173.5,98.0,-1.7,-0.3,1.08,GOOD
1790983948127,373,1987.0,-124.0919029029342,32000.0,173.5,98.0,-1.7,-0.3,1.08,GOOD
1790983948127,374,1982.0,-96.44018493176291,32000.0,173.5,98.0,-1.7,-0.3,1.08,GOOD
1790983948127,375,1987.0,-80.55082748716117,32000.0,173.5,98.0,-1.7,-0.3,1.08,GOOD
1790983948206,376,1996.0,-78.8327385103586,32000.0,173.5,98.0,-1.7,-0.2,1.08,GOOD
1790983948206,377,2000.0,-77.75167971368941,32000.0,173.5,98.0,-1.7,-0.2,1.08,GOOD
1790983948206,378,1978.0,-69.75698068831441,32000.0,173.5,98.0,-1.7,-0.2,1.08,GOOD
1790983948206,379,1936.0,-64.5636255314796,32000.0,173.5,98.0,-1.7,-0.2,1.08,GOOD
1790983948206,380,1920.0,-75.50906811547031,32000.0,173.5,98.0,-1.7,-0.2,1.08,GOOD
1790983948206,381,2038.0,-95.4985746973208,32000.0,173.5,98.0,-1.7,-0.2,1.08,GOOD
1790983948206,382,2038.0,-98.09339119000498,32000.0,173.5,98.0,-1.7,-0.2,1.08,GOOD
1790983948206,383,2029.0,-72.5456776907163,32000.0,173.5,98.0,-1.7,-0.2,1.08,GOOD
1790983948206,384,2029.0,-37.62398103081444,32000.0,173.5,98.0,-1.7,-0.2,1.08,GOOD
1790983948206,385,2013.0,-14.742973007969187,32000.0,173.5,98.0,-1.7,-0.2,1.08,GOOD
1790983948206,386,2037.0,-8.444911353796744,32000.0,173.5,98.0,-1.7,-0.2,1.08,GOOD
1790983948206,387,2042.0,-10.548518856589702,32000.0,173.5,98.0,-1.7,-0.2,1.08,GOOD
1790983948206,388,2049.0,-11.995775108520625,32000.0,173.5,98.0,-1.7,-0.2,1.08,GOOD
1790983948206,389,1872.0,-16.429254028880205,32000.0,173.5,98.0,-1.7,-0.2,1.08,GOOD
1790983948206,390,1897.0,-38.77418438980997,32000.0,173.5,98.0,-1.7,-0.2,1.08,GOOD
1790983948206,391,1909.0,-78.98688940598237,32000.0,173.5,98.0,-1.7,-0.2,1.08,GOOD
1790983948206,392,1917.0,-116.75965993213208,32000.0,173.5,98.0,-1.7,-0.2,1.08,GOOD
1790983948206,393,1785.0,-142.79925401654066,32000.0,173.5,98.0,-1.7,-0.2,1.08,GOOD
1790983948206,394,1781.0,-167.7708063017546,32000.0,173.5,98.0,-1.7,-0.2,1.08,GOOD
1790983948206,395,1775.0,-196.2808269887384,32000.0,173.5,98.0,-1.7,-0.2,1.08,GOOD
1790983948206,396,1776.0,-219.7209336287491,32000.0,173.5,98.0,-1.7,-0.2,1.08,GOOD
1790983948206,397,2114.0,-221.16890230821554,32000.0,173.5,98.0,-1.7,-0.2,1.08,GOOD
1790983948206,398,2120.0,-173.83605542127944,32000.0,173.5,98.0,-1.7,-0.2,1.08,GOOD
1790983948206,399,2150.0,-73.12362067432315,32000.0,173.5,98.0,-1.7,-0.2,1.08,GOOD
1790983948206,400,2173.0,46.09428086338969,32000.0,173.5,98.0,-1.7,-0.2,1.08,GOOD
1790983948331,401,3033.0,177.1964043214156,32000.0,173.5,98.0,-1.6,-0.2,1.08,GOOD
1790983948331,402,3030.0,370.5719880429816,32000.0,173.5,98.0,-1.6,-0.2,1.08,GOOD
1790983948331,403,3045.0,626.075829783687,32000.0,173.5,98.0,-1.6,-0.2,1.08,GOOD
1790983948331,404,1880.0,813.4409695491865,32000.0,173.5,98.0,-1.6,-0.2,1.08,GOOD
1790983948331,405,1819.0,765.958026878296,32000.0,173.5,98.0,-1.6,-0.2,1.08,GOOD
1790983948331,406,1749.0,464.1628119249809,32000.0,173.5,98.0,-1.6,-0.2,1.08,GOOD
1790983948331,407,1658.0,55.911140776110166,32000.0,173.5,98.0,-1.6,-0.2,1.08,GOOD
1790983948331,408,1834.0,-293.2267724799583,32000.0,173.5,98.0,-1.6,-0.2,1.08,GOOD
1790983948331,409,1963.0,-465.26082484816357,32000.0,173.5,98.0,-1.6,-0.2,1.08,GOOD
1790983948331,410,2015.0,-412.586375128115,32000.0,173.5,98.0,-1.6,-0.2,1.08,GOOD
1790983948331,411,1981.0,-213.2665381909757,32000.0,173.5,98.0,-1.6,-0.2,1.08,GOOD
1790983948331,412,1657.0,-42.10511906064032,32000.0,173.5,98.0,-1.6,-0.2,1.08,GOOD
1790983948331,413,1684.0,-35.467275514513396,32000.0,173.5,98.0,-1.6,-0.2,1.08,GOOD
1790983948331,414,1741.0,-166.51276181710213,32000.0,173.5,98.0,-1.6,-0.2,1.08,GOOD
1790983948331,415,1749.0,-293.09179031051383,32000.0,173.5,98.0,-1.6,-0.2,1.08,GOOD
1790983948331,416,1848.0,-324.1425159397426,32000.0,173.5,98.0,-1.6,-0.2,1.08,GOOD
1790983948331,417,1794.0,-282.7329973208866,32000.0,173.5,98.0,-1.6,-0.2,1.08,GOOD
1790983948331,418,1825.0,-235.43380724665084,32000.0,173.5,98.0,-1.6,-0.2,1.08,GOOD
1790983948331,419,1887.0,-206.5740656300713,32000.0,173.5,98.0,-1.6,-0.2,1.08,GOOD
1790983948331,420,2143.0,-161.95948808571862,32000.0,173.5,98.0,-1.6,-0.2,1.08,GOOD
1790983948331,421,2075.0,-72.77071520055611,32000.0,173.5,98.0,-1.6,-0.2,1.08,GOOD
1790983948331,422,2026.0,25.070512416983618,32000.0,173.5,98.0,-1.6,-0.2,1.08,GOOD
1790983948331,423,2092.0,75.6825202468318,32000.0,173.5,98.0,-1.6,-0.2,1.08,GOOD
1790983948331,424,2174.0,85.75921526494793,32000.0,173.5,98.0,-1.6,-0.2,1.08,GOOD
1790983948331,425,2198.0,104.15901741700247,32000.0,173.5,98.0,-1.6,-0.2,1.08,GOOD
1790983948417,426,2147.0,143.70123582974935,32000.0,173.5,98.0,-1.6,-0.3,1.09,GOOD
1790983948417,427,1916.0,163.39296531269872,32000.0,173.5,98.0,-1.6,-0.3,1.09,GOOD
1790983948417,428,1966.0,124.02770646660133,32000.0,173.5,98.0,-1.6,-0.3,1.09,GOOD
1790983948417,429,2028.0,48.128435356428014,32000.0,173.5,98.0,-1.6,-0.3,1.09,GOOD
1790983948417,430,2035.0,-5.375685372401271,32000.0,173.5,98.0,-1.6,-0.3,1.09,GOOD
1790983948417,431,1981.0,-16.549679528699603,32000.0,173.5,98.0,-1.6,-0.3,1.09,GOOD
1790983948417,432,1982.0,-10.848074630601905,32000.0,173.5,98.0,-1.6,-0.3,1.09,GOOD
1790983948417,433,2009.0,-7.351227426684143,32000.0,173.5,98.0,-1.6,-0.3,1.09,GOOD
1790983948417,434,1984.0,-2.328974318734093,32000.0,173.5,98.0,-1.6,-0.3,1.09,GOOD
1790983948417,435,1971.0,4.434098808590211,32000.0,173.5,98.0,-1.6,-0.3,1.09,GOOD
1790983948417,436,1941.0,0.737497887088792,32000.0,173.5,98.0,-1.6,-0.3,1.09,GOOD
1790983948417,437,1923.0,-19.13208526470718,32000.0,173.5,98.0,-1.6,-0.3,1.09,GOOD
1790983948417,438,2329.0,-28.43331088800158,32000.0,173.5,98.0,-1.6,-0.3,1.09,GOOD
1790983948417,439,2344.0,24.009402519012987,32000.0,173.5,98.0,-1.6,-0.3,1.09,GOOD
1790983948417,440,2331.0,142.9984567525878,32000.0,173.5,98.0,-1.6,-0.3,1.09,GOOD
1790983948417,441,2378.0,269.2156730187405,32000.0,173.5,98.0,-1.6,-0.3,1.09,GOOD
1790983948417,442,2355.0,353.608427191436,32000.0,173.5,98.0,-1.6,-0.3,1.09,GOOD
1790983948417,443,2373.0,389.5186588561689,32000.0,173.5,98.0,-1.6,-0.3,1.09,GOOD
1790983948417,444,2391.0,389.32648053093453,32000.0,173.5,98.0,-1.6,-0.3,1.09,GOOD
1790983948417,445,2325.0,367.74772498475284,32000.0,173.5,98.0,-1.6,-0.3,1.09,GOOD
1790983948417,446,2318.0,336.482868229984,32000.0,173.5,98.0,-1.6,-0.3,1.09,GOOD
1790983948417,447,2309.0,307.68895810849733,32000.0,173.5,98.0,-1.6,-0.3,1.09,GOOD
1790983948417,448,2332.0,291.3335463971603,32000.0,173.5,98.0,-1.6,-0.3,1.09,GOOD
1790983948417,449,2188.0,279.6313249473111,32000.0,173.5,98.0,-1.6,-0.3,1.09,GOOD
1790983948417,450,2226.0,251.65486201469741,32000.0,173.5,98.0,-1.6,-0.3,1.09,GOOD
1790983948529,451,2162.0,205.1556541704976,32000.0,173.5,98.0,-1.6,-0.3,1.08,GOOD
1790983948529,452,2204.0,161.71582736497197,32000.0,173.5,98.0,-1.6,-0.3,1.08,GOOD
1790983948529,453,2068.0,133.60536836549284,32000.0,173.5,98.0,-1.6,-0.3,1.08,GOOD
1790983948529,454,2074.0,107.06905174188971,32000.0,173.5,98.0,-1.6,-0.3,1.08,GOOD
1790983948529,455,2072.0,68.70431092122595,32000.0,173.5,98.0,-1.6,-0.3,1.08,GOOD
1790983948529,456,2018.0,27.071730283494258,32000.0,173.5,98.0,-1.6,-0.3,1.08,GOOD
1790983948529,457,1889.0,-9.367414873378502,32000.0,173.5,98.0,-1.6,-0.3,1.08,GOOD
1790983948529,458,1866.0,-49.440538771483695,32000.0,173.5,98.0,-1.6,-0.3,1.08,GOOD
1790983948529,459,1876.0,-99.70803597077342,32000.0,173.5,98.0,-1.6,-0.3,1.08,GOOD
1790983948529,460,1861.0,-150.51128914041936,32000.0,173.5,98.0,-1.6,-0.3,1.08,GOOD
1790983948529,461,2148.0,-175.8367138764997,32000.0,173.5,98.0,-1.6,-0.3,1.08,GOOD
1790983948529,462,2122.0,-142.56101945500427,32000.0,173.5,98.0,-1.6,-0.3,1.08,GOOD
1790983948529,463,2134.0,-52.547688718197584,32000.0,173.5,98.0,-1.6,-0.3,1.08,GOOD
1790983948529,464,2015.0,41.04896014777278,32000.0,173.5,98.0,-1.6,-0.3,1.08,GOOD
1790983948529,465,2208.0,90.58719732526562,32000.0,173.5,98.0,-1.6,-0.3,1.08,GOOD
1790983948529,466,2015.0,95.00889984729183,32000.0,173.5,98.0,-1.6,-0.3,1.08,GOOD
1790983948529,467,1997.0,69.09729575414592,32000.0,173.5,98.0,-1.6,-0.3,1.08,GOOD
1790983948529,468,1899.0,20.109049197995358,32000.0,173.5,98.0,-1.6,-0.3,1.08,GOOD
1790983948529,469,1951.0,-37.782266289817684,32000.0,173.5,98.0,-1.6,-0.3,1.08,GOOD
1790983948529,470,1960.0,-84.1069039554476,32000.0,173.5,98.0,-1.6,-0.3,1.08,GOOD
1790983948529,471,1932.0,-108.67077927897041,32000.0,173.5,98.0,-1.6,-0.3,1.08,GOOD
1790983948529,472,1745.0,-123.31691125527905,32000.0,173.5,98.0,-1.6,-0.3,1.08,GOOD
1790983948529,473,1766.0,-150.12965484439727,32000.0,173.5,98.0,-1.6,-0.3,1.08,GOOD
1790983948529,474,1804.0,-190.05061877675166,32000.0,173.5,98.0,-1.6,-0.3,1.08,GOOD
1790983948529,475,1799.0,-224.2808075777166,32000.0,173.5,98.0,-1.6,-0.3,1.08,GOOD
1790983948612,476,1741.0,-245.6352552552558,32000.0,173.5,98.0,-1.6,-0.3,1.08,GOOD
1790983948612,477,1734.0,-260.098735045706,32000.0,173.5,98.0,-1.6,-0.3,1.08,GOOD
1790983948612,478,1761.0,-266.0436469690993,32000.0,173.5,98.0,-1.6,-0.3,1.08,GOOD
1790983948612,479,1791.0,-256.920428113659,32000.0,173.5,98.0,-1.6,-0.3,1.08,GOOD
1790983948612,480,2021.0,-229.25938971548558,32000.0,173.5,98.0,-1.6,-0.3,1.08,GOOD
1790983948612,481,1957.0,-179.24453173221548,32000.0,173.5,98.0,-1.6,-0.3,1.08,GOOD
1790983948612,482,1946.0,-114.71185763719889,32000.0,173.5,98.0,-1.6,-0.3,1.08,GOOD
1790983948612,483,2114.0,-49.59369298593408,32000.0,173.5,98.0,-1.6,-0.3,1.08,GOOD
1790983948612,484,2117.0,16.50120264648939,32000.0,173.5,98.0,-1.6,-0.3,1.08,GOOD
1790983948612,485,2089.0,75.77819355949856,32000.0,173.5,98.0,-1.6,-0.3,1.08,GOOD
1790983948612,486,2051.0,103.74994511858795,32000.0,173.5,98.0,-1.6,-0.3,1.08,GOOD
1790983948612,487,1949.0,92.34584507802633,32000.0,173.5,98.0,-1.6,-0.3,1.08,GOOD
1790983948612,488,1995.0,58.615569093347005,32000.0,173.5,98.0,-1.6,-0.3,1.08,GOOD
1790983948612,489,2013.0,25.83328038130102,32000.0,173.5,98.0,-1.6,-0.3,1.08,GOOD
1790983948612,490,2019.0,4.873302157779353,32000.0,173.5,98.0,-1.6,-0.3,1.08,GOOD
1790983948612,491,1777.0,-15.948190922826203,32000.0,173.5,98.0,-1.6,-0.3,1.08,GOOD
1790983948612,492,1792.0,-55.95751586108427,32000.0,173.5,98.0,-1.6,-0.3,1.08,GOOD
1790983948612,493,1809.0,-109.37875108559378,32000.0,173.5,98.0,-1.6,-0.3,1.08,GOOD
1790983948612,494,1836.0,-151.38170753995394,32000.0,173.5,98.0,-1.6,-0.3,1.08,GOOD
1790983948612,495,1808.0,-174.95795265130198,32000.0,173.5,98.0,-1.6,-0.3,1.08,GOOD
1790983948612,496,1796.0,-188.83680843017697,32000.0,173.5,98.0,-1.6,-0.3,1.08,GOOD
1790983948612,497,1810.0,-191.66035902554384,32000.0,173.5,98.0,-1.6,-0.3,1.08,GOOD
1790983948612,498,2073.0,-165.93834037389783,32000.0,173.5,98.0,-1.6,-0.3,1.08,GOOD
1790983948612,499,2018.0,-100.64607367679773,32000.0,173.5,98.0,-1.6,-0.3,1.08,GOOD
1790983948612,500,1961.0,-24.084671921448436,32000.0,173.5,98.0,-1.6,-0.3,1.08,GOOD
1790983948811,501,1923.0,18.601428081042926,32000.0,173.5,98.0,-1.7,-0.3,1.08,GOOD
1790983948811,502,2077.0,26.406399491840503,32000.0,173.5,98.0,-1.7,-0.3,1.08,GOOD
1790983948811,503,2053.0,35.684792386431006,32000.0,173.5,98.0,-1.7,-0.3,1.08,GOOD
1790983948811,504,2040.0,57.444659834145405,32000.0,173.5,98.0,-1.7,-0.3,1.08,GOOD
1790983948811,505,2025.0,69.74544887536928,32000.0,173.5,98.0,-1.7,-0.3,1.08,GOOD
1790983948811,506,1978.0,63.09240516225697,32000.0,173.5,98.0,-1.7,-0.3,1.08,GOOD
1790983948811,507,1985.0,50.57202639527258,32000.0,173.5,98.0,-1.7,-0.3,1.08,GOOD
1790983948811,508,2006.0,43.070057648429554,32000.0,173.5,98.0,-1.7,-0.3,1.08,GOOD
1790983948811,509,2016.0,37.74781197804857,32000.0,173.5,98.0,-1.7,-0.3,1.08,GOOD
1790983948811,510,1966.0,27.162524632964935,32000.0,173.5,98.0,-1.7,-0.3,1.08,GOOD
1790983948811,511,1987.0,13.968875800683747,32000.0,173.5,98.0,-1.7,-0.3,1.08,GOOD
1790983948811,512,1990.0,11.139835250105834,32000.0,173.5,98.0,-1.7,-0.3,1.08,GOOD
1790983948811,513,2011.0,22.72355846279109,32000.0,173.5,98.0,-1.7,-0.3,1.08,GOOD
1790983948811,514,1833.0,27.99546207501403,32000.0,173.5,98.0,-1.7,-0.3,1.08,GOOD
1790983948811,515,1841.0,-0.48401829743326896,32000.0,173.5,98.0,-1.7,-0.3,1.08,GOOD
1790983948811,516,1843.0,-56.192993085569285,32000.0,173.5,98.0,-1.7,-0.3,1.08,GOOD
1790983948811,517,1866.0,-101.77075775548253,32000.0,173.5,98.0,-1.7,-0.3,1.08,GOOD
1790983948811,518,1833.0,-118.10703656851615,32000.0,173.5,98.0,-1.7,-0.3,1.08,GOOD
1790983948811,519,1833.0,-119.52285091720651,32000.0,173.5,98.0,-1.7,-0.3,1.08,GOOD
1790983948811,520,1822.0,-122.45406223835847,32000.0,173.5,98.0,-1.7,-0.3,1.08,GOOD
1790983948811,521,2079.0,-115.2355148707167,32000.0,173.5,98.0,-1.7,-0.3,1.08,GOOD
1790983948811,522,2052.0,-69.81580611741815,32000.0,173.5,98.0,-1.7,-0.3,1.08,GOOD
1790983948811,523,2046.0,8.196520850799507,32000.0,173.5,98.0,-1.7,-0.3,1.08,GOOD
1790983948811,524,2133.0,80.17187858918382,32000.0,173.5,98.0,-1.7,-0.3,1.08,GOOD
1790983948811,525,2156.0,129.7125505710841,32000.0,173.5,98.0,-1.7,-0.3,1.08,GOOD
1790983948908,526,2143.0,166.27931133631355,32000.0,167.6,98.0,-1.7,-0.3,1.07,GOOD
1790983948908,527,2122.0,190.94625002388602,32000.0,167.6,98.0,-1.7,-0.3,1.07,GOOD
1790983948908,528,1951.0,188.9740741491021,32000.0,167.6,98.0,-1.7,-0.3,1.07,GOOD
1790983948908,529,1988.0,148.47959644772416,32000.0,167.6,98.0,-1.7,-0.3,1.07,GOOD
1790983948908,530,2000.0,86.39881829579463,32000.0,167.6,98.0,-1.7,-0.3,1.07,GOOD
1790983948908,531,2001.0,37.894727808756016,32000.0,167.6,98.0,-1.7,-0.3,1.07,GOOD
1790983948908,532,1770.0,9.258567383793675,32000.0,167.6,98.0,-1.7,-0.3,1.07,GOOD
1790983948908,533,1792.0,-27.407777964726066,32000.0,167.6,98.0,-1.7,-0.3,1.07,GOOD
1790983948908,534,1813.0,-81.99056918561261,32000.0,167.6,98.0,-1.7,-0.3,1.07,GOOD
1790983948908,535,1815.0,-130.17368189260253,32000.0,167.6,98.0,-1.7,-0.3,1.07,GOOD
1790983948908,536,1942.0,-148.73603283925377,32000.0,167.6,98.0,-1.7,-0.3,1.07,GOOD
1790983948908,537,1910.0,-131.46694071557678,32000.0,167.6,98.0,-1.7,-0.3,1.07,GOOD
1790983948908,538,1910.0,-89.47602587116612,32000.0,167.6,98.0,-1.7,-0.3,1.07,GOOD
1790983948908,539,1907.0,-45.28334837988411,32000.0,167.6,98.0,-1.7,-0.3,1.07,GOOD
1790983948908,540,1989.0,-13.141080960187638,32000.0,167.6,98.0,-1.7,-0.3,1.07,GOOD
1790983948908,541,1951.0,5.820987842445591,32000.0,167.6,98.0,-1.7,-0.3,1.07,GOOD
1790983948908,542,1930.0,11.691294203124066,32000.0,167.6,98.0,-1.7,-0.3,1.07,GOOD
1790983948908,543,2111.0,13.483979058028021,32000.0,167.6,98.0,-1.7,-0.3,1.07,GOOD
1790983948908,544,2146.0,38.465341479946886,32000.0,167.6,98.0,-1.7,-0.3,1.07,GOOD
1790983948908,545,2153.0,97.49336238639056,32000.0,167.6,98.0,-1.7,-0.3,1.07,GOOD
1790983948908,546,2150.0,163.1163824966938,32000.0,167.6,98.0,-1.7,-0.3,1.07,GOOD
1790983948908,547,2091.0,202.24657469576303,32000.0,167.6,98.0,-1.7,-0.3,1.07,GOOD
1790983948908,548,2148.0,207.3534114696708,32000.0,167.6,98.0,-1.7,-0.3,1.07,GOOD
1790983948908,549,2169.0,196.71440962827964,32000.0,167.6,98.0,-1.7,-0.3,1.07,GOOD
1790983948908,550,2185.0,191.39038449473082,32000.0,167.6,98.0,-1.7,-0.3,1.07,GOOD
1790983949014,551,2499.0,208.21577733506052,32000.0,167.6,98.0,-1.7,-0.3,1.08,GOOD
1790983949014,552,2512.0,269.87600211129234,32000.0,167.6,98.0,-1.7,-0.3,1.08,GOOD
1790983949014,553,2535.0,376.1052987045667,32000.0,167.6,98.0,-1.7,-0.3,1.08,GOOD
1790983949014,554,2549.0,487.48071817570303,32000.0,167.6,98.0,-1.7,-0.3,1.08,GOOD
1790983949014,555,1748.0,532.4450149919018,32000.0,167.6,98.0,-1.7,-0.3,1.08,GOOD
1790983949014,556,1704.0,424.0863824423538,32000.0,167.6,98.0,-1.7,-0.3,1.08,GOOD
1790983949014,557,1658.0,162.06227051195046,32000.0,167.6,98.0,-1.7,-0.3,1.08,GOOD
1790983949014,558,1645.0,-133.15496653161898,32000.0,167.6,98.0,-1.7,-0.3,1.08,GOOD
1790983949014,559,1911.0,-332.6584638438927,32000.0,167.6,98.0,-1.7,-0.3,1.08,GOOD
1790983949014,560,1914.0,-373.44074252231485,32000.0,167.6,98.0,-1.7,-0.3,1.08,GOOD
1790983949014,561,1915.0,-277.28966876848415,32000.0,167.6,98.0,-1.7,-0.3,1.08,GOOD
1790983949014,562,1902.0,-134.12095047048604,32000.0,167.6,98.0,-1.7,-0.3,1.08,GOOD
1790983949014,563,2234.0,-18.947475004312896,32000.0,167.6,98.0,-1.7,-0.3,1.08,GOOD
1790983949014,564,2224.0,62.92815022797983,32000.0,167.6,98.0,-1.7,-0.3,1.08,GOOD
1790983949014,565,2237.0,133.89865206514125,32000.0,167.6,98.0,-1.7,-0.3,1.08,GOOD
1790983949014,566,2221.0,198.23889074353832,32000.0,167.6,98.0,-1.7,-0.3,1.08,GOOD
1790983949014,567,2128.0,245.41988453819255,32000.0,167.6,98.0,-1.7,-0.3,1.08,GOOD
1790983949014,568,2054.0,253.247188421399,32000.0,167.6,98.0,-1.7,-0.3,1.08,GOOD
1790983949014,569,2063.0,205.7587880626949,32000.0,167.6,98.0,-1.7,-0.3,1.08,GOOD
1790983949014,570,2078.0,125.62024079973145,32000.0,167.6,98.0,-1.7,-0.3,1.08,GOOD
1790983949014,571,1894.0,55.48977763051512,32000.0,167.6,98.0,-1.7,-0.3,1.08,GOOD
1790983949014,572,1920.0,10.583827888919586,32000.0,167.6,98.0,-1.7,-0.3,1.08,GOOD
1790983949014,573,1920.0,-20.020429886785266,32000.0,167.6,98.0,-1.7,-0.3,1.08,GOOD
1790983949014,574,1954.0,-45.993002755803694,32000.0,167.6,98.0,-1.7,-0.3,1.08,GOOD
1790983949014,575,1911.0,-68.55912157909782,32000.0,167.6,98.0,-1.7,-0.3,1.08,GOOD
1790983949099,576,1926.0,-81.03680910607011,32000.0,167.6,98.0,-1.6,-0.3,1.08,GOOD
1790983949099,577,1921.0,-75.31235142842384,32000.0,167.6,98.0,-1.6,-0.3,1.08,GOOD
1790983949099,578,1902.0,-57.81098450497909,32000.0,167.6,98.0,-1.6,-0.3,1.08,GOOD
1790983949099,579,1891.0,-50.663860551677935,32000.0,167.6,98.0,-1.6,-0.3,1.08,GOOD
1790983949099,580,1894.0,-65.81964695457343,32000.0,167.6,98.0,-1.6,-0.3,1.08,GOOD
1790983949099,581,1907.0,-87.72235047567008,32000.0,167.6,98.0,-1.6,-0.3,1.08,GOOD
1790983949099,582,1905.0,-92.86586186694767,32000.0,167.6,98.0,-1.6,-0.3,1.08,GOOD
1790983949099,583,2191.0,-67.82608298622917,32000.0,167.6,98.0,-1.6,-0.3,1.08,GOOD
1790983949099,584,2158.0,-7.5719184983394605,32000.0,167.6,98.0,-1.6,-0.3,1.08,GOOD
1790983949099,585,2168.0,72.84881120605118,32000.0,167.6,98.0,-1.6,-0.3,1.08,GOOD
1790983949099,586,2173.0,144.65147830807416,32000.0,167.6,98.0,-1.6,-0.3,1.08,GOOD
1790983949099,587,2237.0,196.81645449066673,32000.0,167.6,98.0,-1.6,-0.3,1.08,GOOD
1790983949099,588,2227.0,231.8212075828145,32000.0,167.6,98.0,-1.6,-0.3,1.08,GOOD
1790983949099,589,2252.0,246.302678067111,32000.0,167.6,98.0,-1.6,-0.3,1.08,GOOD
1790983949099,590,2255.0,241.54010084536026,32000.0,167.6,98.0,-1.6,-0.3,1.08,GOOD
1790983949099,591,2300.0,236.36402602597192,32000.0,167.6,98.0,-1.6,-0.3,1.08,GOOD
1790983949099,592,2294.0,249.863732070565,32000.0,167.6,98.0,-1.6,-0.3,1.08,GOOD
1790983949099,593,2274.0,275.4341935096361,32000.0,167.6,98.0,-1.6,-0.3,1.08,GOOD
1790983949099,594,2087.0,280.3089214628116,32000.0,167.6,98.0,-1.6,-0.3,1.08,GOOD
1790983949099,595,2132.0,239.0699283477114,32000.0,167.6,98.0,-1.6,-0.3,1.08,GOOD
1790983949099,596,2160.0,171.3934415355464,32000.0,167.6,98.0,-1.6,-0.3,1.08,GOOD
1790983949099,597,2089.0,119.54538507103264,32000.0,167.6,98.0,-1.6,-0.3,1.08,GOOD
1790983949099,598,2071.0,93.00958420720987,32000.0,167.6,98.0,-1.6,-0.3,1.08,GOOD
1790983949099,599,2090.0,74.50542512075904,32000.0,167.6,98.0,-1.6,-0.3,1.08,GOOD
1790983949099,600,2135.0,60.237140920393934,32000.0,167.6,98.0,-1.6,-0.3,1.08,GOOD
1790983949340,601,2385.0,70.76268234264482,-24.0,167.6,98.0,-1.6,-0.3,1.08,GOOD
1790983949340,602,2335.0,127.22423553828621,-25.0,167.6,98.0,-1.6,-0.3,1.08,GOOD
1790983949340,603,2289.0,210.9318400676211,-25.0,167.6,98.0,-1.6,-0.3,1.08,GOOD
1790983949340,604,2261.0,272.65228789353876,-26.0,167.6,98.0,-1.6,-0.3,1.08,GOOD
1790983949340,605,2337.0,290.1130151858005,-26.0,167.6,98.0,-1.6,-0.3,1.08,GOOD
1790983949340,606,2363.0,282.4405416532649,-27.0,167.6,98.0,-1.6,-0.3,1.08,GOOD
1790983949340,607,2354.0,273.83311931844355,-28.0,167.6,98.0,-1.6,-0.3,1.08,GOOD
1790983949340,608,2001.0,257.54419515836173,-32.0,167.6,98.0,-1.6,-0.3,1.08,GOOD
1790983949340,609,2025.0,203.24229748692073,-32.0,167.6,98.0,-1.6,-0.3,1.08,GOOD
1790983949340,610,2040.0,111.21053857396703,-31.0,167.6,98.0,-1.6,-0.3,1.08,GOOD
1790983949340,611,2024.0,19.674083056437098,-31.0,167.6,98.0,-1.6,-0.3,1.08,GOOD
1790983949340,612,1854.0,-51.93952869565261,-32.0,167.6,98.0,-1.6,-0.3,1.08,GOOD
1790983949340,613,1865.0,-112.78907877543402,-33.0,167.6,98.0,-1.6,-0.3,1.08,GOOD
1790983949340,614,1883.0,-159.86325487207446,-33.0,167.6,98.0,-1.6,-0.3,1.08,GOOD
1790983949340,615,1753.0,-184.19734000599655,-34.0,167.6,98.0,-1.6,-0.3,1.08,GOOD
1790983949340,616,1734.0,-205.88238160810675,-35.0,167.6,98.0,-1.6,-0.3,1.08,GOOD
1790983949340,617,1733.0,-248.6233966847152,-36.0,167.6,98.0,-1.6,-0.3,1.08,GOOD
1790983949340,618,1734.0,-299.0096056463076,-37.0,167.6,98.0,-1.6,-0.3,1.08,GOOD
1790983949340,619,2081.0,-312.23931335639907,-38.0,167.6,98.0,-1.6,-0.3,1.08,GOOD
1790983949340,620,2045.0,-250.2068020528418,-41.0,167.6,98.0,-1.6,-0.3,1.08,GOOD
1790983949340,621,2024.0,-135.01804643658187,-43.0,167.6,98.0,-1.6,-0.3,1.08,GOOD
1790983949340,622,2010.0,-35.396580856744066,-45.0,167.6,98.0,-1.6,-0.3,1.08,GOOD
1790983949340,623,2118.0,15.558440712986478,-47.0,167.6,98.0,-1.6,-0.3,1.08,GOOD
1790983949340,624,2109.0,38.97277453390499,-51.0,167.6,98.0,-1.6,-0.3,1.08,GOOD
1790983949340,625,2105.0,56.04835254757511,-53.0,167.6,98.0,-1.6,-0.3,1.08,GOOD
1790983949340,626,2115.0,64.54571695449621,32000.0,167.6,98.0,-1.6,-0.3,1.08,GOOD
1790983949340,627,1905.0,55.067317050128246,32000.0,167.6,98.0,-1.6,-0.3,1.08,GOOD
1790983949340,628,1922.0,20.43847983014752,32000.0,167.6,98.0,-1.6,-0.3,1.08,GOOD
1790983949340,629,1923.0,-32.33898955048685,32000.0,167.6,98.0,-1.6,-0.3,1.08,GOOD
1790983949340,630,1938.0,-82.80666621848899,32000.0,167.6,98.0,-1.6,-0.3,1.08,GOOD
1790983949340,631,1820.0,-122.41988310434232,32000.0,167.6,98.0,-1.6,-0.3,1.08,GOOD
1790983949340,632,1839.0,-156.02068973709555,32000.0,167.6,98.0,-1.6,-0.3,1.08,GOOD
1790983949340,633,1839.0,-179.8311801874964,32000.0,167.6,98.0,-1.6,-0.3,1.08,GOOD
1790983949340,634,1879.0,-184.47084160422799,32000.0,167.6,98.0,-1.6,-0.3,1.08,GOOD
1790983949340,635,1862.0,-175.43921449113967,32000.0,167.6,98.0,-1.6,-0.3,1.08,GOOD
1790983949340,636,1865.0,-168.38726288500402,32000.0,167.6,98.0,-1.6,-0.3,1.08,GOOD
1790983949340,637,1869.0,-166.78148278968786,32000.0,167.6,98.0,-1.6,-0.3,1.08,GOOD
1790983949340,638,2036.0,-153.64308729058462,32000.0,167.6,98.0,-1.6,-0.3,1.08,GOOD
1790983949340,639,1995.0,-112.60449167602594,32000.0,167.6,98.0,-1.6,-0.3,1.08,GOOD
1790983949340,640,1988.0,-58.73670344207267,32000.0,167.6,98.0,-1.6,-0.3,1.08,GOOD
1790983949340,641,1993.0,-23.54182452021931,32000.0,167.6,98.0,-1.6,-0.3,1.08,GOOD
1790983949340,642,2113.0,-8.631958054116131,32000.0,167.6,98.0,-1.6,-0.3,1.08,GOOD
1790983949340,643,2097.0,11.838172349619803,32000.0,167.6,98.0,-1.6,-0.3,1.08,GOOD
1790983949340,644,2074.0,45.03427744251516,32000.0,167.6,98.0,-1.6,-0.3,1.08,GOOD
1790983949340,645,2076.0,70.18795242733337,32000.0,167.6,98.0,-1.6,-0.3,1.08,GOOD
1790983949340,646,2015.0,71.71750783447581,32000.0,167.6,98.0,-1.6,-0.3,1.08,GOOD
1790983949340,647,2043.0,54.63941167661355,32000.0,167.6,98.0,-1.6,-0.3,1.08,GOOD
1790983949340,648,2036.0,34.319923292978864,32000.0,167.6,98.0,-1.6,-0.3,1.08,GOOD
1790983949340,649,2036.0,20.799744346281322,32000.0,167.6,98.0,-1.6,-0.3,1.08,GOOD
1790983949340,650,1789.0,3.2430461030151765,32000.0,167.6,98.0,-1.6,-0.3,1.08,GOOD
1790983949340,651,1804.0,-41.66322120220214,32000.0,167.6,98.0,-1.6,-0.3,1.08,GOOD
1790983949340,652,1818.0,-111.08896186874352,32000.0,167.6,98.0,-1.6,-0.3,1.08,GOOD
1790983949340,653,1821.0,-172.8720770524372,32000.0,167.6,98.0,-1.6,-0.3,1.08,GOOD
1790983949340,654,1779.0,-208.47746462395372,32000.0,167.6,98.0,-1.6,-0.3,1.08,GOOD
1790983949340,655,1795.0,-223.41510780707046,32000.0,167.6,98.0,-1.6,-0.3,1.08,GOOD
1790983949340,656,1808.0,-223.03583106131236,32000.0,167.6,98.0,-1.6,-0.3,1.08,GOOD
1790983949340,657,2161.0,-194.5845506123237,32000.0,167.6,98.0,-1.6,-0.3,1.08,GOOD
1790983949340,658,2117.0,-118.36653516673475,32000.0,167.6,98.0,-1.6,-0.3,1.08,GOOD
1790983949340,659,2103.0,-11.039726854074555,32000.0,167.6,98.0,-1.6,-0.3,1.08,GOOD
1790983949340,660,2112.0,79.85347002672329,32000.0,167.6,98.0,-1.6,-0.3,1.08,GOOD
1790983949340,661,2185.0,134.1488312744731,32000.0,167.6,98.0,-1.6,-0.3,1.08,GOOD
1790983949340,662,2171.0,163.35401145074155,32000.0,167.6,98.0,-1.6,-0.3,1.08,GOOD
1790983949340,663,2150.0,173.07998356950623,32000.0,167.6,98.0,-1.6,-0.3,1.08,GOOD
1790983949340,664,2152.0,161.94931177736402,32000.0,167.6,98.0,-1.6,-0.3,1.08,GOOD
1790983949340,665,1859.0,131.39097273153928,32000.0,167.6,98.0,-1.6,-0.3,1.08,GOOD
1790983949340,666,1904.0,76.9365005994651,32000.0,167.6,98.0,-1.6,-0.3,1.08,GOOD
1790983949340,667,1900.0,2.6707896153180624,32000.0,167.6,98.0,-1.6,-0.3,1.08,GOOD
1790983949340,668,1879.0,-71.03024652001234,32000.0,167.6,98.0,-1.6,-0.3,1.08,GOOD
1790983949340,669,1910.0,-126.76760044679173,32000.0,167.6,98.0,-1.6,-0.3,1.08,GOOD
1790983949340,670,1974.0,-147.48927236110114,32000.0,167.6,98.0,-1.6,-0.3,1.08,GOOD
1790983949340,671,2003.0,-119.53314375850758,32000.0,167.6,98.0,-1.6,-0.3,1.08,GOOD
1790983949340,672,1960.0,-60.26042911730827,32000.0,167.6,98.0,-1.6,-0.3,1.08,GOOD
1790983949340,673,1674.0,-25.655931922479056,32000.0,167.6,98.0,-1.6,-0.3,1.08,GOOD
1790983949340,674,1662.0,-67.83323201169412,32000.0,167.6,98.0,-1.6,-0.3,1.08,GOOD
1790983949340,675,1678.0,-172.76902824908095,32000.0,167.6,98.0,-1.6,-0.3,1.08,GOOD
1790983949570,676,1674.0,-273.3524386547555,32000.0,176.5,98.0,-1.7,-0.3,1.08,GOOD
1790983949570,677,3196.0,-266.99174243173354,32000.0,176.5,98.0,-1.7,-0.3,1.08,GOOD
1790983949570,678,3188.0,-26.18295472702866,32000.0,176.5,98.0,-1.7,-0.3,1.08,GOOD
1790983949570,679,3246.0,437.148552371848,32000.0,176.5,98.0,-1.7,-0.3,1.08,GOOD
1790983949570,680,3323.0,928.1217007173185,32000.0,176.5,98.0,-1.7,-0.3,1.08,GOOD
1790983949570,681,2038.0,1225.5356625736686,32000.0,176.5,98.0,-1.7,-0.3,1.08,GOOD
1790983949570,682,1927.0,1156.7238026446335,32000.0,176.5,98.0,-1.7,-0.3,1.08,GOOD
1790983949570,683,1825.0,723.0843582737509,32000.0,176.5,98.0,-1.7,-0.3,1.08,GOOD
1790983949570,684,1801.0,159.3516114538413,32000.0,176.5,98.0,-1.7,-0.3,1.08,GOOD
1790983949570,685,2246.0,-250.3035659861436,32000.0,176.5,98.0,-1.7,-0.3,1.08,GOOD
1790983949570,686,2306.0,-343.4970320507679,32000.0,176.5,98.0,-1.7,-0.3,1.08,GOOD
1790983949570,687,2283.0,-159.00320447553761,32000.0,176.5,98.0,-1.7,-0.3,1.08,GOOD
1790983949570,688,3937.0,170.79839614018945,32000.0,176.5,98.0,-1.7,-0.3,1.08,GOOD
1790983949570,689,4095.0,620.2715668969406,32000.0,176.5,98.0,-1.7,-0.3,1.08,GOOD
1790983949570,690,4095.0,1170.1039155617107,32000.0,176.5,98.0,-1.7,-0.3,1.08,GOOD
1790983949570,691,4095.0,1675.162337105182,32000.0,176.5,98.0,-1.7,-0.3,1.08,GOOD
1790983949570,692,1401.0,1895.7055360669265,32000.0,176.5,98.0,-1.7,-0.3,1.08,GOOD
1790983949570,693,1117.0,1549.7022483762953,32000.0,176.5,98.0,-1.7,-0.3,1.08,GOOD
1790983949570,694,936.0,625.2073203436569,32000.0,176.5,98.0,-1.7,-0.3,1.08,GOOD
1790983949570,695,898.0,-469.1959335136902,32000.0,176.5,98.0,-1.7,-0.3,1.08,GOOD
1790983949570,696,2100.0,-1232.0854000646686,32000.0,176.5,98.0,-1.7,-0.3,1.08,GOOD
1790983949570,697,2121.0,-1361.085675621026,32000.0,176.5,98.0,-1.7,-0.3,1.08,GOOD
1790983949570,698,2079.0,-924.6372880928102,32000.0,176.5,98.0,-1.7,-0.3,1.08,GOOD
1790983949570,699,2016.0,-319.81661496626634,32000.0,176.5,98.0,-1.7,-0.3,1.08,GOOD
1790983949570,700,2449.0,91.77612511906318,32000.0,176.5,98.0,-1.7,-0.3,1.08,GOOD
1790983949646,701,2491.0,238.2699740533132,32000.0,176.5,98.0,-1.7,-0.3,1.07,LEAD_OFF
1790983949646,702,2543.0,250.69657074468014,32000.0,176.5,98.0,-1.7,-0.3,1.07,LEAD_OFF
1790983949646,703,2529.0,266.39892433471925,32000.0,176.5,98.0,-1.7,-0.3,1.07,LEAD_OFF
1790983949646,704,1910.0,305.2453293083614,32000.0,176.5,98.0,-1.7,-0.3,1.07,LEAD_OFF
1790983949646,705,1843.0,265.86946606553795,32000.0,176.5,98.0,-1.7,-0.3,1.07,LEAD_OFF
1790983949646,706,1824.0,80.09104946876157,32000.0,176.5,98.0,-1.7,-0.3,1.07,LEAD_OFF
1790983949646,707,1821.0,-174.11426923981276,32000.0,176.5,98.0,-1.7,-0.3,1.07,LEAD_OFF
1790983949646,708,1866.0,-359.9268030335244,32000.0,176.5,98.0,-1.7,-0.3,1.07,LEAD_OFF
1790983949646,709,1911.0,-405.75401887000226,32000.0,176.5,98.0,-1.7,-0.3,1.07,LEAD_OFF
1790983949646,710,1957.0,-340.86049915105764,32000.0,176.5,98.0,-1.7,-0.3,1.07,LEAD_OFF
1790983949646,711,2856.0,-214.9120916914214,32000.0,176.5,98.0,-1.7,-0.3,1.07,LEAD_OFF
1790983949646,712,2878.0,-10.52883726755816,32000.0,176.5,98.0,-1.7,-0.3,1.07,LEAD_OFF
1790983949646,713,2899.0,277.81180913563554,32000.0,176.5,98.0,-1.7,-0.3,1.07,LEAD_OFF
1790983949646,714,2878.0,568.8077576532942,32000.0,176.5,98.0,-1.7,-0.3,1.07,LEAD_OFF
1790983949646,715,1661.0,720.3861836519709,32000.0,176.5,98.0,-1.7,-0.3,1.07,LEAD_OFF
1790983949646,716,1631.0,580.5448813258984,32000.0,176.5,98.0,-1.7,-0.3,1.07,LEAD_OFF
1790983949646,717,1585.0,156.39017652913384,32000.0,176.5,98.0,-1.7,-0.3,1.07,LEAD_OFF
1790983949646,718,1543.0,-331.90939057744026,32000.0,176.5,98.0,-1.7,-0.3,1.07,LEAD_OFF
1790983949646,719,1840.0,-652.5739048974433,32000.0,176.5,98.0,-1.7,-0.3,1.07,LEAD_OFF
1790983949646,720,1816.0,-711.1623761131364,32000.0,176.5,98.0,-1.7,-0.3,1.07,LEAD_OFF
1790983949646,721,1791.0,-572.973443057935,32000.0,176.5,98.0,-1.7,-0.3,1.07,LEAD_OFF
1790983949646,722,1757.0,-397.3729572431942,32000.0,176.5,98.0,-1.7,-0.3,1.07,LEAD_OFF
1790983949646,723,3335.0,-241.39677641853788,32000.0,176.5,98.0,-1.7,-0.3,1.07,LEAD_OFF
1790983949646,724,3135.0,13.907390575891647,32000.0,176.5,98.0,-1.7,-0.3,1.07,LEAD_OFF
1790983949646,725,3077.0,409.959572470266,32000.0,176.5,98.0,-1.7,-0.3,1.07,LEAD_OFF
1790983949731,726,3014.0,788.9931780297466,32000.0,176.5,98.0,-1.7,-0.3,1.08,GOOD
1790983949731,727,1552.0,946.2108015750239,32000.0,176.5,98.0,-1.7,-0.3,1.08,GOOD
1790983949731,728,1558.0,730.3173269790879,32000.0,176.5,98.0,-1.7,-0.3,1.08,GOOD
1790983949731,729,1538.0,191.11122247285869,32000.0,176.5,98.0,-1.7,-0.3,1.08,GOOD
1790983949731,730,1855.0,-380.21742616886445,32000.0,176.5,98.0,-1.7,-0.3,1.08,GOOD
1790983949731,731,1933.0,-697.5262272586651,32000.0,176.5,98.0,-1.7,-0.3,1.08,GOOD
1790983949731,732,1974.0,-682.5663148882959,32000.0,176.5,98.0,-1.7,-0.3,1.08,GOOD
1790983949731,733,1919.0,-461.25368865912367,32000.0,176.5,98.0,-1.7,-0.3,1.08,GOOD
1790983949731,734,1785.0,-239.40271426765565,32000.0,176.5,98.0,-1.7,-0.3,1.08,GOOD
1790983949731,735,1783.0,-159.53854247184617,32000.0,176.5,98.0,-1.7,-0.3,1.08,GOOD
1790983949731,736,1850.0,-220.342469482784,32000.0,176.5,98.0,-1.7,-0.3,1.08,GOOD
1790983949731,737,2002.0,-309.296648347457,32000.0,176.5,98.0,-1.7,-0.3,1.08,GOOD
1790983949731,738,1927.0,-326.1039891295057,32000.0,176.5,98.0,-1.7,-0.3,1.08,GOOD
1790983949731,739,1856.0,-275.2220199313669,32000.0,176.5,98.0,-1.7,-0.3,1.08,GOOD
1790983949731,740,1842.0,-229.8781307787869,32000.0,176.5,98.0,-1.7,-0.3,1.08,GOOD
1790983949731,741,2151.0,-219.75613241667912,32000.0,176.5,98.0,-1.7,-0.3,1.08,GOOD
1790983949731,742,2178.0,-197.28423685629022,32000.0,176.5,98.0,-1.7,-0.3,1.08,GOOD
1790983949731,743,2274.0,-119.76106520202518,32000.0,176.5,98.0,-1.7,-0.3,1.08,GOOD
1790983949731,744,1879.0,-21.65519956340639,32000.0,176.5,98.0,-1.7,-0.3,1.08,GOOD
1790983949731,745,1976.0,17.826368350708208,32000.0,176.5,98.0,-1.7,-0.3,1.08,GOOD
1790983949731,746,2058.0,-23.859019641883307,32000.0,176.5,98.0,-1.7,-0.3,1.08,GOOD
1790983949731,747,2118.0,-87.57179613217511,32000.0,176.5,98.0,-1.7,-0.3,1.08,GOOD
1790983949731,748,2105.0,-115.29473332418141,32000.0,176.5,98.0,-1.7,-0.3,1.08,GOOD
1790983949731,749,2073.0,-99.50285799908973,32000.0,176.5,98.0,-1.7,-0.3,1.08,GOOD
1790983949731,750,2081.0,-62.84767450846957,32000.0,176.5,98.0,-1.7,-0.3,1.08,GOOD
1790983950026,751,2116.0,-29.71706308609229,32000.0,176.5,98.0,-1.6,-0.3,1.08,GOOD
1790983950026,752,2123.0,-13.820157710116057,32000.0,176.5,98.0,-1.6,-0.3,1.08,GOOD
1790983950026,753,2123.0,-15.883883764583661,32000.0,176.5,98.0,-1.6,-0.3,1.08,GOOD
1790983950026,754,2113.0,-23.674252001378797,32000.0,176.5,98.0,-1.6,-0.3,1.08,GOOD
1790983950026,755,2144.0,-21.09575083832029,32000.0,176.5,98.0,-1.6,-0.3,1.08,GOOD
1790983950026,756,2119.0,-5.673146020050705,32000.0,176.5,98.0,-1.6,-0.3,1.08,GOOD
1790983950026,757,2089.0,4.994184897085239,32000.0,176.5,98.0,-1.6,-0.3,1.08,GOOD
1790983950026,758,2049.0,-7.400059395045092,32000.0,176.5,98.0,-1.6,-0.3,1.08,GOOD
1790983950026,759,2310.0,-27.84361171518418,32000.0,176.5,98.0,-1.6,-0.3,1.08,GOOD
1790983950026,760,2304.0,-11.475281077203682,32000.0,176.5,98.0,-1.6,-0.3,1.08,GOOD
1790983950026,761,2323.0,55.27163820102383,32000.0,176.5,98.0,-1.6,-0.3,1.08,GOOD
1790983950026,762,2320.0,132.80332312795784,32000.0,176.5,98.0,-1.6,-0.3,1.08,GOOD
1790983950026,763,2243.0,178.56065265653035,32000.0,176.5,98.0,-1.6,-0.3,1.08,GOOD
1790983950026,764,2226.0,179.91195647357864,32000.0,176.5,98.0,-1.6,-0.3,1.08,GOOD
1790983950026,765,2236.0,150.28202778496592,32000.0,176.5,98.0,-1.6,-0.3,1.08,GOOD
1790983950026,766,2283.0,114.71591196374908,32000.0,176.5,98.0,-1.6,-0.3,1.08,GOOD
1790983950026,767,2053.0,83.52814733183793,32000.0,176.5,98.0,-1.6,-0.3,1.08,GOOD
1790983950026,768,2054.0,42.429082389712796,32000.0,176.5,98.0,-1.6,-0.3,1.08,GOOD
1790983950026,769,2027.0,-14.331579096497206,32000.0,176.5,98.0,-1.6,-0.3,1.08,GOOD
1790983950026,770,2039.0,-68.58926638895342,32000.0,176.5,98.0,-1.6,-0.3,1.08,GOOD
1790983950026,771,1861.0,-113.21611773839214,32000.0,176.5,98.0,-1.6,-0.3,1.08,GOOD
1790983950026,772,1905.0,-162.01217745577463,32000.0,176.5,98.0,-1.6,-0.3,1.08,GOOD
1790983950026,773,1892.0,-213.54838763048804,32000.0,176.5,98.0,-1.6,-0.3,1.08,GOOD
1790983950026,774,1862.0,-247.74470181849944,32000.0,176.5,98.0,-1.6,-0.3,1.08,GOOD
1790983950026,775,1781.0,-263.42877366655455,32000.0,176.5,98.0,-1.6,-0.3,1.08,GOOD
1790983950027,776,1796.0,-280.47399937664363,32000.0,176.5,98.0,-1.6,-0.3,1.08,GOOD
1790983950027,777,1810.0,-305.87384678756223,32000.0,176.5,98.0,-1.6,-0.3,1.08,GOOD
1790983950027,778,2019.0,-317.23299237847385,32000.0,176.5,98.0,-1.6,-0.3,1.08,GOOD
1790983950027,779,1953.0,-286.64917530354546,32000.0,176.5,98.0,-1.6,-0.3,1.08,GOOD
1790983950027,780,1947.0,-223.08513430237193,32000.0,176.5,98.0,-1.6,-0.3,1.08,GOOD
1790983950027,781,1967.0,-165.03377487233888,32000.0,176.5,98.0,-1.6,-0.3,1.08,GOOD
1790983950027,782,1981.0,-133.48820803963588,32000.0,176.5,98.0,-1.6,-0.3,1.08,GOOD
1790983950027,783,1938.0,-125.0762334925557,32000.0,176.5,98.0,-1.6,-0.3,1.08,GOOD
1790983950027,784,1890.0,-134.53489902918034,32000.0,176.5,98.0,-1.6,-0.3,1.08,GOOD
1790983950027,785,1891.0,-157.79139216684956,32000.0,176.5,98.0,-1.6,-0.3,1.08,GOOD
1790983950027,786,1828.0,-186.65554367080304,32000.0,176.5,98.0,-1.6,-0.3,1.08,GOOD
1790983950027,787,1872.0,-213.1905296319186,32000.0,176.5,98.0,-1.6,-0.3,1.08,GOOD
1790983950027,788,1852.0,-231.74457462293407,32000.0,176.5,98.0,-1.6,-0.3,1.08,GOOD
1790983950027,789,1788.0,-242.18989556857633,32000.0,176.5,98.0,-1.6,-0.3,1.08,GOOD
1790983950027,790,1817.0,-250.9223454418395,32000.0,176.5,98.0,-1.6,-0.3,1.08,GOOD
1790983950027,791,1866.0,-256.5399909555651,32000.0,176.5,98.0,-1.6,-0.3,1.08,GOOD
1790983950027,792,1890.0,-249.0270030027072,32000.0,176.5,98.0,-1.6,-0.3,1.08,GOOD
1790983950027,793,1879.0,-227.82221776259885,32000.0,176.5,98.0,-1.6,-0.3,1.08,GOOD
1790983950027,794,1814.0,-206.4136952865471,32000.0,176.5,98.0,-1.6,-0.3,1.08,GOOD
1790983950027,795,1813.0,-198.82772778550856,32000.0,176.5,98.0,-1.6,-0.3,1.08,GOOD
1790983950027,796,2009.0,-198.6400277960746,32000.0,176.5,98.0,-1.6,-0.3,1.08,GOOD
1790983950027,797,1989.0,-181.09204910186642,32000.0,176.5,98.0,-1.6,-0.3,1.08,GOOD
1790983950027,798,1954.0,-141.35880378835708,32000.0,176.5,98.0,-1.6,-0.3,1.08,GOOD
1790983950027,799,1908.0,-103.88868481172895,32000.0,176.5,98.0,-1.6,-0.3,1.08,GOOD
1790983950027,800,1974.0,-84.99393485639061,32000.0,176.5,98.0,-1.6,-0.3,1.08,GOOD
1790983950140,801,2027.0,-76.00887225324357,32000.0,176.5,98.0,-1.7,-0.3,1.08,GOOD
1790983950140,802,2038.0,-64.23192342956533,32000.0,176.5,98.0,-1.7,-0.3,1.08,GOOD
1790983950140,803,1893.0,-54.40985526761444,32000.0,176.5,98.0,-1.7,-0.3,1.08,GOOD
1790983950140,804,1894.0,-61.25240569140219,32000.0,176.5,98.0,-1.7,-0.3,1.08,GOOD
1790983950140,805,1908.0,-83.49337928785738,32000.0,176.5,98.0,-1.7,-0.3,1.08,GOOD
1790983950140,806,1942.0,-104.69714562858205,32000.0,176.5,98.0,-1.7,-0.3,1.08,GOOD
1790983950140,807,1797.0,-122.32491720218783,32000.0,176.5,98.0,-1.7,-0.3,1.08,GOOD
1790983950140,808,1790.0,-150.6899191573557,32000.0,176.5,98.0,-1.7,-0.3,1.08,GOOD
1790983950140,809,1778.0,-189.24285172612377,32000.0,176.5,98.0,-1.7,-0.3,1.08,GOOD
1790983950140,810,1781.0,-218.29651776479142,32000.0,176.5,98.0,-1.7,-0.3,1.08,GOOD
1790983950140,811,2007.0,-221.30279278906787,32000.0,176.5,98.0,-1.7,-0.3,1.08,GOOD
1790983950140,812,1990.0,-189.72041973119022,32000.0,176.5,98.0,-1.7,-0.3,1.08,GOOD
1790983950140,813,1973.0,-131.1682675359907,32000.0,176.5,98.0,-1.7,-0.3,1.08,GOOD
1790983950140,814,2044.0,-66.07971629913786,32000.0,176.5,98.0,-1.7,-0.3,1.08,GOOD
1790983950140,815,2013.0,-7.520875243692625,32000.0,176.5,98.0,-1.7,-0.3,1.08,GOOD
1790983950140,816,1986.0,30.18137241108169,32000.0,176.5,98.0,-1.7,-0.3,1.08,GOOD
1790983950140,817,1908.0,27.24346602194682,32000.0,176.5,98.0,-1.7,-0.3,1.08,GOOD
1790983950140,818,2125.0,-6.680669118145648,32000.0,176.5,98.0,-1.7,-0.3,1.08,GOOD
1790983950140,819,2101.0,-22.314756513341173,32000.0,176.5,98.0,-1.7,-0.3,1.08,GOOD
1790983950140,820,2092.0,9.841682800059179,32000.0,176.5,98.0,-1.7,-0.3,1.08,GOOD
1790983950140,821,2096.0,62.90407726049954,32000.0,176.5,98.0,-1.7,-0.3,1.08,GOOD
1790983950140,822,2004.0,93.93378048009629,32000.0,176.5,98.0,-1.7,-0.3,1.08,GOOD
1790983950140,823,2012.0,84.7538528415707,32000.0,176.5,98.0,-1.7,-0.3,1.08,GOOD
1790983950140,824,1996.0,49.0393683101105,32000.0,176.5,98.0,-1.7,-0.3,1.08,GOOD
1790983950140,825,1883.0,8.90710757711042,32000.0,176.5,98.0,-1.7,-0.3,1.08,GOOD
1790983950142,826,1923.0,-30.580520850774548,32000.0,176.5,98.0,-1.7,-0.3,1.08,GOOD
1790983950142,827,1946.0,-66.90127333054693,32000.0,176.5,98.0,-1.7,-0.3,1.08,GOOD
1790983950142,828,1961.0,-86.82037907650535,32000.0,176.5,98.0,-1.7,-0.3,1.08,GOOD
1790983950142,829,1885.0,-85.88816656933946,32000.0,176.5,98.0,-1.7,-0.3,1.08,GOOD
1790983950142,830,1877.0,-78.65374499903243,32000.0,176.5,98.0,-1.7,-0.3,1.08,GOOD
1790983950142,831,1886.0,-80.37104490725133,32000.0,176.5,98.0,-1.7,-0.3,1.08,GOOD
1790983950142,832,2080.0,-84.2424284059496,32000.0,176.5,98.0,-1.7,-0.3,1.08,GOOD
1790983950142,833,2047.0,-66.89958142273979,32000.0,176.5,98.0,-1.7,-0.3,1.08,GOOD
1790983950142,834,2016.0,-24.10920337968014,32000.0,176.5,98.0,-1.7,-0.3,1.08,GOOD
1790983950142,835,2012.0,20.912082242729785,32000.0,176.5,98.0,-1.7,-0.3,1.08,GOOD
1790983950142,836,2166.0,53.9576833565535,32000.0,176.5,98.0,-1.7,-0.3,1.08,GOOD
1790983950142,837,2150.0,83.13994618498242,32000.0,176.5,98.0,-1.7,-0.3,1.08,GOOD
1790983950142,838,2125.0,111.09271109818819,32000.0,176.5,98.0,-1.7,-0.3,1.08,GOOD
1790983950142,839,2105.0,127.79556866948187,32000.0,176.5,98.0,-1.7,-0.3,1.08,GOOD
1790983950142,840,2025.0,128.44671456527516,32000.0,176.5,98.0,-1.7,-0.3,1.08,GOOD
1790983950142,841,1978.0,111.1219835732678,32000.0,176.5,98.0,-1.7,-0.3,1.08,GOOD
1790983950142,842,2052.0,75.32425844202973,32000.0,176.5,98.0,-1.7,-0.3,1.08,GOOD
1790983950142,843,2049.0,35.195971915133775,32000.0,176.5,98.0,-1.7,-0.3,1.08,GOOD
1790983950142,844,1924.0,6.870875913581791,32000.0,176.5,98.0,-1.7,-0.3,1.08,GOOD
1790983950142,845,1962.0,-9.71563256991156,32000.0,176.5,98.0,-1.7,-0.3,1.08,GOOD
1790983950142,846,1983.0,-17.85068942993555,32000.0,176.5,98.0,-1.7,-0.3,1.08,GOOD
1790983950142,847,1990.0,-18.4238741892991,32000.0,176.5,98.0,-1.7,-0.3,1.08,GOOD
1790983950142,848,1898.0,-22.169368163361337,32000.0,176.5,98.0,-1.7,-0.3,1.08,GOOD
1790983950142,849,1895.0,-40.48015260656139,32000.0,176.5,98.0,-1.7,-0.3,1.08,GOOD
1790983950142,850,1903.0,-65.46956666286002,32000.0,176.5,98.0,-1.7,-0.3,1.08,GOOD
1790983950232,851,1902.0,-80.02904612031374,32000.0,176.5,98.0,-1.7,-0.3,1.08,GOOD
1790983950232,852,1934.0,-82.09247064048694,32000.0,176.5,98.0,-1.7,-0.3,1.08,GOOD
1790983950232,853,1891.0,-82.10910457799969,32000.0,176.5,98.0,-1.7,-0.3,1.08,GOOD
1790983950232,854,1877.0,-86.19861719469546,32000.0,176.5,98.0,-1.7,-0.3,1.08,GOOD
1790983950232,855,1866.0,-90.9360980850206,32000.0,176.5,98.0,-1.7,-0.3,1.08,GOOD
1790983950232,856,2158.0,-80.67937811703868,32000.0,176.5,98.0,-1.7,-0.3,1.08,GOOD
1790983950232,857,2140.0,-35.029307613627665,32000.0,176.5,98.0,-1.7,-0.3,1.08,GOOD
1790983950232,858,2140.0,39.503035594817575,32000.0,176.5,98.0,-1.7,-0.3,1.08,GOOD
1790983950232,859,2144.0,111.06652260174062,32000.0,176.5,98.0,-1.7,-0.3,1.08,GOOD
1790983950232,860,2051.0,157.77859563111218,32000.0,176.5,98.0,-1.7,-0.3,1.08,GOOD
1790983950232,861,2027.0,168.22933540331206,32000.0,176.5,98.0,-1.7,-0.3,1.08,GOOD
1790983950232,862,2004.0,136.1333665931743,32000.0,176.5,98.0,-1.7,-0.3,1.08,GOOD
1790983950232,863,1985.0,74.3221483603823,32000.0,176.5,98.0,-1.7,-0.3,1.08,GOOD
1790983950232,864,1952.0,12.621746772926759,32000.0,176.5,98.0,-1.7,-0.3,1.08,GOOD
1790983950232,865,2016.0,-20.82977343709052,32000.0,176.5,98.0,-1.7,-0.3,1.08,GOOD
1790983950232,866,2030.0,-16.62924458312238,32000.0,176.5,98.0,-1.7,-0.3,1.08,GOOD
1790983950232,867,2412.0,24.037064633757147,32000.0,176.5,98.0,-1.7,-0.3,1.08,GOOD
1790983950232,868,2430.0,109.6538131456021,32000.0,176.5,98.0,-1.7,-0.3,1.08,GOOD
1790983950232,869,2468.0,236.4046246656546,32000.0,176.5,98.0,-1.7,-0.3,1.08,GOOD
1790983950232,870,2494.0,369.96746480526724,32000.0,176.5,98.0,-1.7,-0.3,1.08,GOOD
1790983950232,871,1987.0,453.10202506429727,32000.0,176.5,98.0,-1.7,-0.3,1.08,GOOD
1790983950232,872,1915.0,415.43773035953274,32000.0,176.5,98.0,-1.7,-0.3,1.08,GOOD
1790983950232,873,1865.0,243.927279984669,32000.0,176.5,98.0,-1.7,-0.3,1.08,GOOD
1790983950232,874,1841.0,22.094340804603014,32000.0,176.5,98.0,-1.7,-0.3,1.08,GOOD
1790983950232,875,1933.0,-145.3604336360265,32000.0,176.5,98.0,-1.7,-0.3,1.08,GOOD
1790983950389,876,1920.0,-205.30779511673816,32000.0,176.5,98.0,-1.6,-0.3,1.08,GOOD
1790983950389,877,1891.0,-175.37933360412237,32000.0,176.5,98.0,-1.6,-0.3,1.08,GOOD
1790983950389,878,1871.0,-118.83599284050803,32000.0,176.5,98.0,-1.6,-0.3,1.08,GOOD
1790983950389,879,2150.0,-77.06993379936978,32000.0,176.5,98.0,-1.6,-0.3,1.08,GOOD
1790983950389,880,2169.0,-34.42384672281032,32000.0,176.5,98.0,-1.6,-0.3,1.08,GOOD
1790983950389,881,2184.0,32.76150651382561,32000.0,176.5,98.0,-1.6,-0.3,1.08,GOOD
1790983950389,882,2175.0,111.69058041194333,32000.0,176.5,98.0,-1.6,-0.3,1.08,GOOD
1790983950389,883,1976.0,166.0760902107709,32000.0,176.5,98.0,-1.6,-0.3,1.08,GOOD
1790983950389,884,2003.0,161.90756565485714,32000.0,176.5,98.0,-1.6,-0.3,1.08,GOOD
1790983950389,885,2019.0,101.13471866283517,32000.0,176.5,98.0,-1.6,-0.3,1.08,GOOD
1790983950389,886,1978.0,25.346542129210587,32000.0,176.5,98.0,-1.6,-0.3,1.08,GOOD
1790983950389,887,1993.0,-26.433703461487042,32000.0,176.5,98.0,-1.6,-0.3,1.08,GOOD
1790983950389,888,2007.0,-40.40195908572769,32000.0,176.5,98.0,-1.6,-0.3,1.08,GOOD
1790983950389,889,2017.0,-24.904725199381474,32000.0,176.5,98.0,-1.6,-0.3,1.08,GOOD
1790983950389,890,2019.0,-2.2788902611411332,32000.0,176.5,98.0,-1.6,-0.3,1.08,GOOD
1790983950389,891,1995.0,8.71316705063298,32000.0,176.5,98.0,-1.6,-0.3,1.08,GOOD
1790983950389,892,1978.0,5.663906188983051,32000.0,176.5,98.0,-1.6,-0.3,1.08,GOOD
1790983950389,893,2156.0,4.562870421134671,32000.0,176.5,98.0,-1.6,-0.3,1.08,GOOD
1790983950389,894,2125.0,26.29757597549274,32000.0,176.5,98.0,-1.6,-0.3,1.08,GOOD
1790983950389,895,2104.0,65.88531465384789,32000.0,176.5,98.0,-1.6,-0.3,1.08,GOOD
1790983950389,896,2082.0,95.70071920195485,32000.0,176.5,98.0,-1.6,-0.3,1.08,GOOD
1790983950389,897,2263.0,110.70760691716842,32000.0,176.5,98.0,-1.6,-0.3,1.08,GOOD
1790983950389,898,2261.0,135.88473204394904,32000.0,176.5,98.0,-1.6,-0.3,1.08,GOOD
1790983950389,899,2273.0,180.32606339152102,32000.0,176.5,98.0,-1.6,-0.3,1.08,GOOD
1790983950389,900,2293.0,223.50122222436687,32000.0,176.5,98.0,-1.6,-0.3,1.08,GOOD
1790983950521,901,2168.0,245.668486727206,32000.0,176.5,98.0,-1.6,-0.3,1.08,GOOD
1790983950521,902,2181.0,240.08379029618547,32000.0,176.5,98.0,-1.6,-0.3,1.08,GOOD
1790983950521,903,2169.0,212.02600697499253,32000.0,176.5,98.0,-1.6,-0.3,1.08,GOOD
1790983950521,904,2184.0,175.20108614938258,32000.0,176.5,98.0,-1.6,-0.3,1.08,GOOD
1790983950521,905,2043.0,136.6499427806715,32000.0,176.5,98.0,-1.6,-0.3,1.08,GOOD
1790983950521,906,2070.0,95.37183663785709,32000.0,176.5,98.0,-1.6,-0.3,1.08,GOOD
1790983950521,907,2076.0,59.17024053157098,32000.0,176.5,98.0,-1.6,-0.3,1.08,GOOD
1790983950521,908,2068.0,39.73322875296655,32000.0,176.5,98.0,-1.6,-0.3,1.08,GOOD
1790983950521,909,1969.0,28.34429845909316,32000.0,176.5,98.0,-1.6,-0.3,1.08,GOOD
1790983950521,910,1998.0,5.63217324805483,32000.0,176.5,98.0,-1.6,-0.3,1.08,GOOD
1790983950521,911,2011.0,-24.893082144685955,32000.0,176.5,98.0,-1.6,-0.3,1.08,GOOD
1790983950521,912,2011.0,-41.695059225873734,32000.0,176.5,98.0,-1.6,-0.3,1.08,GOOD
1790983950521,913,2281.0,-28.177355863646024,32000.0,176.5,98.0,-1.6,-0.3,1.08,GOOD
1790983950521,914,2258.0,24.46553500191323,32000.0,176.5,98.0,-1.6,-0.3,1.08,GOOD
1790983950521,915,2270.0,104.20306316046766,32000.0,176.5,98.0,-1.6,-0.3,1.08,GOOD
1790983950521,916,2409.0,185.56149281732888,32000.0,176.5,98.0,-1.6,-0.3,1.08,GOOD
1790983950521,917,2400.0,259.9946428454125,32000.0,176.5,98.0,-1.6,-0.3,1.08,GOOD
1790983950521,918,2382.0,320.50441291758426,32000.0,176.5,98.0,-1.6,-0.3,1.08,GOOD
1790983950521,919,2417.0,349.5621187841453,32000.0,176.5,98.0,-1.6,-0.3,1.08,GOOD
1790983950521,920,2281.0,342.27657848407205,32000.0,176.5,98.0,-1.6,-0.3,1.08,GOOD
1790983950521,921,2304.0,309.6656320213409,32000.0,176.5,98.0,-1.6,-0.3,1.08,GOOD
1790983950521,922,2293.0,269.43731700590774,32000.0,176.5,98.0,-1.6,-0.3,1.08,GOOD
1790983950521,923,2273.0,235.13897589580455,32000.0,176.5,98.0,-1.6,-0.3,1.08,GOOD
1790983950521,924,2004.0,195.93368965658962,32000.0,176.5,98.0,-1.6,-0.3,1.08,GOOD
1790983950521,925,2050.0,128.7390215369694,32000.0,176.5,98.0,-1.6,-0.3,1.08,GOOD
1790983950791,926,2056.0,43.96046826001895,28.0,176.5,98.0,-1.6,-0.2,1.08,GOOD
1790983950791,927,2059.0,-20.49873632086585,28.0,176.5,98.0,-1.6,-0.2,1.08,GOOD
1790983950791,928,1925.0,-55.02091956594967,27.0,176.5,98.0,-1.6,-0.2,1.08,GOOD
1790983950791,929,1910.0,-83.95923790129247,29.0,176.5,98.0,-1.6,-0.2,1.08,GOOD
1790983950791,930,1920.0,-119.77277930542515,28.0,176.5,98.0,-1.6,-0.2,1.08,GOOD
1790983950791,931,2090.0,-142.3676897124082,29.0,176.5,98.0,-1.6,-0.2,1.08,GOOD
1790983950791,932,2004.0,-130.59486374538236,29.0,176.5,98.0,-1.6,-0.2,1.08,GOOD
1790983950791,933,1964.0,-99.74780508627798,30.0,176.5,98.0,-1.6,-0.2,1.08,GOOD
1790983950791,934,1926.0,-83.3777509778604,30.0,176.5,98.0,-1.6,-0.2,1.08,GOOD
1790983950791,935,2119.0,-83.4451494562879,31.0,176.5,98.0,-1.6,-0.2,1.08,GOOD
1790983950791,936,2109.0,-71.20692751125048,32.0,176.5,98.0,-1.6,-0.2,1.08,GOOD
1790983950791,937,2084.0,-38.00661238210679,33.0,176.5,98.0,-1.6,-0.2,1.08,GOOD
1790983950791,938,2080.0,-6.35949278272535,32.0,176.5,98.0,-1.6,-0.2,1.08,GOOD
1790983950791,939,1943.0,4.541277559851246,35.0,176.5,98.0,-1.6,-0.2,1.08,GOOD
1790983950791,940,1884.0,-13.664754439227544,35.0,176.5,98.0,-1.6,-0.2,1.08,GOOD
1790983950791,941,1879.0,-63.144186316195515,36.0,176.5,98.0,-1.6,-0.2,1.08,GOOD
1790983950791,942,1888.0,-130.3279447502317,37.0,176.5,98.0,-1.6,-0.2,1.08,GOOD
1790983950791,943,1917.0,-187.72122120445346,36.0,176.5,98.0,-1.6,-0.2,1.08,GOOD
1790983950791,944,1937.0,-209.03837860578756,37.0,176.5,98.0,-1.6,-0.2,1.08,GOOD
1790983950791,945,1890.0,-189.80293721668605,37.0,176.5,98.0,-1.6,-0.2,1.08,GOOD
1790983950791,946,1867.0,-156.89242467352898,36.0,176.5,98.0,-1.6,-0.2,1.08,GOOD
1790983950791,947,2074.0,-136.28992778307833,37.0,176.5,98.0,-1.6,-0.2,1.08,GOOD
1790983950791,948,2075.0,-117.56841191249437,37.0,176.5,98.0,-1.6,-0.2,1.08,GOOD
1790983950791,949,2066.0,-80.16894756045473,38.0,176.5,98.0,-1.6,-0.2,1.08,GOOD
1790983950791,950,2053.0,-29.6057618666903,42.0,176.5,98.0,-1.6,-0.2,1.08,GOOD
1790983950792,951,2029.0,11.691738307416072,32000.0,176.5,98.0,-1.6,-0.2,1.08,GOOD
1790983950792,952,2039.0,24.78122442431374,32000.0,176.5,98.0,-1.6,-0.2,1.08,GOOD
1790983950792,953,2054.0,8.827475269437429,32000.0,176.5,98.0,-1.6,-0.2,1.08,GOOD
1790983950792,954,1902.0,-21.706348928510113,32000.0,176.5,98.0,-1.6,-0.2,1.08,GOOD
1790983950792,955,1902.0,-56.878278683287796,32000.0,176.5,98.0,-1.6,-0.2,1.08,GOOD
1790983950792,956,1906.0,-91.98824112845831,32000.0,176.5,98.0,-1.6,-0.2,1.08,GOOD
1790983950792,957,1906.0,-121.8512446439143,32000.0,176.5,98.0,-1.6,-0.2,1.08,GOOD
1790983950792,958,1846.0,-147.81592491600853,32000.0,176.5,98.0,-1.6,-0.2,1.08,GOOD
1790983950792,959,1871.0,-171.65700965356228,32000.0,176.5,98.0,-1.6,-0.2,1.08,GOOD
1790983950792,960,1876.0,-183.93955384439997,32000.0,176.5,98.0,-1.6,-0.2,1.08,GOOD
1790983950792,961,1868.0,-177.62113684325777,32000.0,176.5,98.0,-1.6,-0.2,1.08,GOOD
1790983950792,962,2022.0,-158.490439625661,32000.0,176.5,98.0,-1.6,-0.2,1.08,GOOD
1790983950792,963,2012.0,-129.76829265855048,32000.0,176.5,98.0,-1.6,-0.2,1.08,GOOD
1790983950792,964,2003.0,-91.56960733264131,32000.0,176.5,98.0,-1.6,-0.2,1.08,GOOD
1790983950792,965,2146.0,-45.55162959938403,32000.0,176.5,98.0,-1.6,-0.2,1.08,GOOD
1790983950792,966,2132.0,10.169443179049836,32000.0,176.5,98.0,-1.6,-0.2,1.08,GOOD
1790983950792,967,2130.0,65.0600222836442,32000.0,176.5,98.0,-1.6,-0.2,1.08,GOOD
1790983950792,968,2139.0,97.0609050718504,32000.0,176.5,98.0,-1.6,-0.2,1.08,GOOD
1790983950792,969,2043.0,99.57509075643534,32000.0,176.5,98.0,-1.6,-0.2,1.08,GOOD
1790983950792,970,2060.0,82.22332190263154,32000.0,176.5,98.0,-1.6,-0.2,1.08,GOOD
1790983950792,971,2046.0,57.25029824404629,32000.0,176.5,98.0,-1.6,-0.2,1.08,GOOD
1790983950792,972,2044.0,31.919044355518793,32000.0,176.5,98.0,-1.6,-0.2,1.08,GOOD
1790983950792,973,1892.0,2.281122441613068,32000.0,176.5,98.0,-1.6,-0.2,1.08,GOOD
1790983950792,974,1933.0,-37.720546280767984,32000.0,176.5,98.0,-1.6,-0.2,1.08,GOOD
1790983950792,975,1935.0,-77.35908216557489,32000.0,176.5,98.0,-1.6,-0.2,1.08,GOOD
1790983950793,976,1926.0,-100.15573089289498,32000.0,176.5,98.0,-1.6,-0.2,1.08,GOOD
1790983950793,977,1797.0,-113.5437421708989,32000.0,176.5,98.0,-1.6,-0.2,1.08,GOOD
1790983950793,978,1813.0,-139.08902442805962,32000.0,176.5,98.0,-1.6,-0.2,1.08,GOOD
1790983950793,979,1828.0,-175.40332514975836,32000.0,176.5,98.0,-1.6,-0.2,1.08,GOOD
1790983950793,980,1817.0,-200.6214986580962,32000.0,176.5,98.0,-1.6,-0.2,1.08,GOOD
1790983950793,981,2143.0,-194.2113718277615,32000.0,176.5,98.0,-1.6,-0.2,1.08,GOOD
1790983950793,982,2116.0,-139.35017144110395,32000.0,176.5,98.0,-1.6,-0.2,1.08,GOOD
1790983950793,983,2122.0,-44.501952998291586,32000.0,176.5,98.0,-1.6,-0.2,1.08,GOOD
1790983950793,984,2151.0,52.8478148594608,32000.0,176.5,98.0,-1.6,-0.2,1.08,GOOD
1790983950793,985,2147.0,123.75869082097248,32000.0,176.5,98.0,-1.6,-0.2,1.08,GOOD
1790983950793,986,2114.0,155.85946650998102,32000.0,176.5,98.0,-1.6,-0.2,1.08,GOOD
1790983950793,987,2110.0,145.9464843787252,32000.0,176.5,98.0,-1.6,-0.2,1.08,GOOD
1790983950793,988,2020.0,106.69178385500558,32000.0,176.5,98.0,-1.6,-0.2,1.08,GOOD
1790983950793,989,2052.0,62.06174484835473,32000.0,176.5,98.0,-1.6,-0.2,1.08,GOOD
1790983950793,990,2046.0,32.34107896007889,32000.0,176.5,98.0,-1.6,-0.2,1.08,GOOD
1790983950793,991,1831.0,12.069447682904459,32000.0,176.5,98.0,-1.6,-0.2,1.08,GOOD
1790983950793,992,1828.0,-29.74656328441764,32000.0,176.5,98.0,-1.6,-0.2,1.08,GOOD
1790983950793,993,1855.0,-99.35051182392982,32000.0,176.5,98.0,-1.6,-0.2,1.08,GOOD
1790983950793,994,1878.0,-160.03635096176902,32000.0,176.5,98.0,-1.6,-0.2,1.08,GOOD
1790983950793,995,2008.0,-176.89580710363643,32000.0,176.5,98.0,-1.6,-0.2,1.08,GOOD
1790983950793,996,1933.0,-148.24327877318848,32000.0,176.5,98.0,-1.6,-0.2,1.08,GOOD
1790983950793,997,1906.0,-103.53859822960013,32000.0,176.5,98.0,-1.6,-0.2,1.08,GOOD
1790983950793,998,1911.0,-74.55353368610892,32000.0,176.5,98.0,-1.6,-0.2,1.08,GOOD
1790983950793,999,2173.0,-57.48136891550102,32000.0,176.5,98.0,-1.6,-0.2,1.08,GOOD
1790983950793,1000,2142.0,-22.246403268274562,32000.0,176.5,98.0,-1.6,-0.2,1.08,GOOD
1790983950892,1001,2114.0,35.07130806013251,32000.0,176.5,98.0,-1.6,-0.3,1.08,GOOD
1790983950892,1002,2116.0,86.88269005998696,32000.0,176.5,98.0,-1.6,-0.3,1.08,GOOD
1790983950892,1003,2168.0,119.66778593131318,32000.0,176.5,98.0,-1.6,-0.3,1.08,GOOD
1790983950892,1004,2167.0,140.36288575667479,32000.0,176.5,98.0,-1.6,-0.3,1.08,GOOD
1790983950892,1005,2141.0,148.93809669522216,32000.0,176.5,98.0,-1.6,-0.3,1.08,GOOD
1790983950892,1006,2119.0,138.85901092784513,32000.0,176.5,98.0,-1.6,-0.3,1.08,GOOD
1790983950892,1007,1984.0,112.04593846844439,32000.0,176.5,98.0,-1.6,-0.3,1.08,GOOD
1790983950892,1008,2024.0,76.37740999382642,32000.0,176.5,98.0,-1.6,-0.3,1.08,GOOD
1790983950892,1009,2036.0,41.07677380043065,32000.0,176.5,98.0,-1.6,-0.3,1.08,GOOD
1790983950892,1010,1882.0,6.659405438541633,32000.0,176.5,98.0,-1.6,-0.3,1.08,GOOD
1790983950892,1011,1881.0,-39.10097654959424,32000.0,176.5,98.0,-1.6,-0.3,1.08,GOOD
1790983950892,1012,1894.0,-91.4759809834345,32000.0,176.5,98.0,-1.6,-0.3,1.08,GOOD
1790983950892,1013,1914.0,-123.68801784677407,32000.0,176.5,98.0,-1.6,-0.3,1.08,GOOD
1790983950892,1014,1964.0,-123.98526135148504,32000.0,176.5,98.0,-1.6,-0.3,1.08,GOOD
1790983950892,1015,1931.0,-107.1477466616294,32000.0,176.5,98.0,-1.6,-0.3,1.08,GOOD
1790983950892,1016,1913.0,-92.90094072503904,32000.0,176.5,98.0,-1.6,-0.3,1.08,GOOD
1790983950892,1017,1914.0,-86.33865536984013,32000.0,176.5,98.0,-1.6,-0.3,1.08,GOOD
1790983950892,1018,2144.0,-71.93860559756527,32000.0,176.5,98.0,-1.6,-0.3,1.08,GOOD
1790983950892,1019,2130.0,-30.354482675930477,32000.0,176.5,98.0,-1.6,-0.3,1.08,GOOD
1790983950892,1020,2116.0,29.646083546755026,32000.0,176.5,98.0,-1.6,-0.3,1.08,GOOD
1790983950892,1021,2138.0,80.36677615444542,32000.0,176.5,98.0,-1.6,-0.3,1.08,GOOD
1790983950892,1022,2154.0,114.61674031982443,32000.0,176.5,98.0,-1.6,-0.3,1.08,GOOD
1790983950892,1023,2160.0,140.30984433314936,32000.0,176.5,98.0,-1.6,-0.3,1.08,GOOD
1790983950892,1024,2159.0,153.956967173954,32000.0,176.5,98.0,-1.6,-0.3,1.08,GOOD
1790983950892,1025,1957.0,140.1995840069996,32000.0,176.5,98.0,-1.6,-0.3,1.08,GOOD
1790983951018,1026,1994.0,91.61584198170891,32000.0,176.5,98.0,-1.6,-0.2,1.09,GOOD
1790983951018,1027,2007.0,30.821105784771447,32000.0,176.5,98.0,-1.6,-0.2,1.09,GOOD
1790983951018,1028,1938.0,-11.869098896192448,32000.0,176.5,98.0,-1.6,-0.2,1.09,GOOD
1790983951018,1029,1910.0,-39.841059781348854,32000.0,176.5,98.0,-1.6,-0.2,1.09,GOOD
1790983951018,1030,1908.0,-71.20502236004698,32000.0,176.5,98.0,-1.6,-0.2,1.09,GOOD
1790983951018,1031,1905.0,-101.25630287429689,32000.0,176.5,98.0,-1.6,-0.2,1.09,GOOD
1790983951018,1032,1911.0,-113.2953461939353,32000.0,176.5,98.0,-1.6,-0.2,1.09,GOOD
1790983951018,1033,1891.0,-107.5523232489795,32000.0,176.5,98.0,-1.6,-0.2,1.09,GOOD
1790983951018,1034,1879.0,-102.66528366710668,32000.0,176.5,98.0,-1.6,-0.2,1.09,GOOD
1790983951018,1035,1865.0,-111.81588237159033,32000.0,176.5,98.0,-1.6,-0.2,1.09,GOOD
1790983951018,1036,2171.0,-115.75972262777518,32000.0,176.5,98.0,-1.6,-0.2,1.09,GOOD
1790983951018,1037,2165.0,-73.00088318521033,32000.0,176.5,98.0,-1.6,-0.2,1.09,GOOD
1790983951018,1038,2169.0,19.830614445861368,32000.0,176.5,98.0,-1.6,-0.2,1.09,GOOD
1790983951018,1039,2037.0,109.10867308393654,32000.0,176.5,98.0,-1.6,-0.2,1.09,GOOD
1790983951018,1040,2050.0,143.92821568011462,32000.0,176.5,98.0,-1.6,-0.2,1.09,GOOD
1790983951018,1041,2047.0,123.2388941628542,32000.0,176.5,98.0,-1.6,-0.2,1.09,GOOD
1790983951018,1042,2057.0,79.88277577187773,32000.0,176.5,98.0,-1.6,-0.2,1.09,GOOD
1790983951018,1043,2107.0,44.0763382239895,32000.0,176.5,98.0,-1.6,-0.2,1.09,GOOD
1790983951018,1044,2164.0,34.35906812727729,32000.0,176.5,98.0,-1.6,-0.2,1.09,GOOD
1790983951018,1045,2182.0,59.12974954534613,32000.0,176.5,98.0,-1.6,-0.2,1.09,GOOD
1790983951018,1046,2201.0,108.93413154033382,32000.0,176.5,98.0,-1.6,-0.2,1.09,GOOD
1790983951018,1047,2504.0,170.96972773393364,32000.0,176.5,98.0,-1.6,-0.2,1.09,GOOD
1790983951018,1048,2454.0,247.671516517216,32000.0,176.5,98.0,-1.6,-0.2,1.09,GOOD
1790983951018,1049,2432.0,331.06909069365224,32000.0,176.5,98.0,-1.6,-0.2,1.09,GOOD
1790983951018,1050,2420.0,393.81771373182596,32000.0,176.5,98.0,-1.6,-0.2,1.09,GOOD
1790983951111,1051,1697.0,393.35637032909983,32000.0,176.5,98.0,-1.6,-0.3,1.08,GOOD
1790983951111,1052,1637.0,267.391258369694,32000.0,176.5,98.0,-1.6,-0.3,1.08,GOOD
1790983951111,1053,1621.0,15.085627713409302,32000.0,176.5,98.0,-1.6,-0.3,1.08,GOOD
1790983951111,1054,1607.0,-259.58821855365727,32000.0,176.5,98.0,-1.6,-0.3,1.08,GOOD
1790983951111,1055,2010.0,-432.6884770896216,32000.0,176.5,98.0,-1.6,-0.3,1.08,GOOD
1790983951111,1056,2021.0,-431.64064913022685,32000.0,176.5,98.0,-1.6,-0.3,1.08,GOOD
1790983951111,1057,2010.0,-281.3010906844095,32000.0,176.5,98.0,-1.6,-0.3,1.08,GOOD
1790983951111,1058,2185.0,-87.07454151349964,32000.0,176.5,98.0,-1.6,-0.3,1.08,GOOD
1790983951111,1059,2193.0,65.10137967509097,32000.0,176.5,98.0,-1.6,-0.3,1.08,GOOD
1790983951111,1060,2190.0,149.07903139617514,32000.0,176.5,98.0,-1.6,-0.3,1.08,GOOD
1790983951111,1061,2202.0,175.4004178421257,32000.0,176.5,98.0,-1.6,-0.3,1.08,GOOD
1790983951111,1062,2043.0,168.2038021930838,32000.0,176.5,98.0,-1.6,-0.3,1.08,GOOD
1790983951111,1063,2057.0,140.0180914719569,32000.0,176.5,98.0,-1.6,-0.3,1.08,GOOD
1790983951111,1064,2063.0,95.00289474591237,32000.0,176.5,98.0,-1.6,-0.3,1.08,GOOD
1790983951111,1065,2073.0,46.59308533186235,32000.0,176.5,98.0,-1.6,-0.3,1.08,GOOD
1790983951111,1066,1985.0,9.097847462170497,32000.0,176.5,98.0,-1.6,-0.3,1.08,GOOD
1790983951111,1067,2001.0,-13.063652936436288,32000.0,176.5,98.0,-1.6,-0.3,1.08,GOOD
1790983951111,1068,2017.0,-20.55520218045534,32000.0,176.5,98.0,-1.6,-0.3,1.08,GOOD
1790983951111,1069,2016.0,-18.5936249718644,32000.0,176.5,98.0,-1.6,-0.3,1.08,GOOD
1790983951111,1070,1965.0,-20.62538548512579,32000.0,176.5,98.0,-1.6,-0.3,1.08,GOOD
1790983951111,1071,1967.0,-35.62767121711523,32000.0,176.5,98.0,-1.6,-0.3,1.08,GOOD
1790983951111,1072,1973.0,-53.92673195899188,32000.0,176.5,98.0,-1.6,-0.3,1.08,GOOD
1790983951111,1073,1958.0,-61.02670273928008,32000.0,176.5,98.0,-1.6,-0.3,1.08,GOOD
1790983951111,1074,2109.0,-53.71669993798823,32000.0,176.5,98.0,-1.6,-0.3,1.08,GOOD
1790983951111,1075,2081.0,-32.90631233048651,32000.0,176.5,98.0,-1.6,-0.3,1.08,GOOD
1790983951252,1076,2078.0,-2.5342099820812263,32000.0,176.5,98.0,-1.6,-0.3,1.08,GOOD
1790983951252,1077,2066.0,28.212798108137846,32000.0,176.5,98.0,-1.6,-0.3,1.08,GOOD
1790983951252,1078,2217.0,57.76002385215043,32000.0,176.5,98.0,-1.6,-0.3,1.08,GOOD
1790983951252,1079,2196.0,91.55865667076188,32000.0,176.5,98.0,-1.6,-0.3,1.08,GOOD
1790983951252,1080,2199.0,123.90201258820781,32000.0,176.5,98.0,-1.6,-0.3,1.08,GOOD
1790983951252,1081,2206.0,143.94168403565644,32000.0,176.5,98.0,-1.6,-0.3,1.08,GOOD
1790983951252,1082,2120.0,152.24838137917556,32000.0,176.5,98.0,-1.6,-0.3,1.08,GOOD
1790983951252,1083,2125.0,149.7380832729304,32000.0,176.5,98.0,-1.6,-0.3,1.08,GOOD
1790983951252,1084,2127.0,131.7601274524323,32000.0,176.5,98.0,-1.6,-0.3,1.08,GOOD
1790983951252,1085,2090.0,99.26375108161315,32000.0,176.5,98.0,-1.6,-0.3,1.08,GOOD
1790983951252,1086,2140.0,64.44344477737985,32000.0,176.5,98.0,-1.6,-0.3,1.08,GOOD
1790983951252,1087,2157.0,48.58115527039753,32000.0,176.5,98.0,-1.6,-0.3,1.08,GOOD
1790983951252,1088,2152.0,62.252385007516,32000.0,176.5,98.0,-1.6,-0.3,1.08,GOOD
1790983951252,1089,2055.0,85.20189148923049,32000.0,176.5,98.0,-1.6,-0.3,1.08,GOOD
1790983951252,1090,2044.0,83.7749325526978,32000.0,176.5,98.0,-1.6,-0.3,1.08,GOOD
1790983951252,1091,2056.0,50.91264647617673,32000.0,176.5,98.0,-1.6,-0.3,1.08,GOOD
1790983951252,1092,2062.0,12.380665549249818,32000.0,176.5,98.0,-1.6,-0.3,1.08,GOOD
1790983951252,1093,2213.0,-1.609274925604987,32000.0,176.5,98.0,-1.6,-0.3,1.08,GOOD
1790983951252,1094,2159.0,20.614092820863025,32000.0,176.5,98.0,-1.6,-0.3,1.08,GOOD
1790983951252,1095,2143.0,61.74231057475106,32000.0,176.5,98.0,-1.6,-0.3,1.08,GOOD
1790983951252,1096,2145.0,93.02374702438136,32000.0,176.5,98.0,-1.6,-0.3,1.08,GOOD
1790983951252,1097,2419.0,115.18682545821501,32000.0,176.5,98.0,-1.6,-0.3,1.08,GOOD
1790983951252,1098,2395.0,157.00860324849506,32000.0,176.5,98.0,-1.6,-0.3,1.08,GOOD
1790983951252,1099,2379.0,222.55725181568857,32000.0,176.5,98.0,-1.6,-0.3,1.08,GOOD
1790983951252,1100,2395.0,282.13370666572484,32000.0,176.5,98.0,-1.6,-0.3,1.08,GOOD
1790983951409,1101,2265.0,312.1955725824372,32000.0,176.5,98.0,-1.6,-0.3,1.07,GOOD
1790983951409,1102,2275.0,303.9752143147386,32000.0,176.5,98.0,-1.6,-0.3,1.07,GOOD
1790983951409,1103,2247.0,260.2281799976846,32000.0,176.5,98.0,-1.6,-0.3,1.07,GOOD
1790983951409,1104,2259.0,200.24410128860382,32000.0,176.5,98.0,-1.6,-0.3,1.07,GOOD
1790983951409,1105,2086.0,144.19358471111536,32000.0,176.5,98.0,-1.6,-0.3,1.07,GOOD
1790983951409,1106,2126.0,97.17060113165307,32000.0,176.5,98.0,-1.6,-0.3,1.07,GOOD
1790983951409,1107,2126.0,59.58563868059473,32000.0,176.5,98.0,-1.6,-0.3,1.07,GOOD
1790983951409,1108,2114.0,32.77358811170613,32000.0,176.5,98.0,-1.6,-0.3,1.07,GOOD
1790983951409,1109,1829.0,0.9982867763056511,32000.0,176.5,98.0,-1.6,-0.3,1.07,GOOD
1790983951409,1110,1858.0,-60.1932798657192,32000.0,176.5,98.0,-1.6,-0.3,1.07,GOOD
1790983951409,1111,1878.0,-141.18805802709517,32000.0,176.5,98.0,-1.6,-0.3,1.07,GOOD
1790983951409,1112,1863.0,-205.28195074035085,32000.0,176.5,98.0,-1.6,-0.3,1.07,GOOD
1790983951409,1113,2058.0,-231.46051644178797,32000.0,176.5,98.0,-1.6,-0.3,1.07,GOOD
1790983951409,1114,2032.0,-213.63571745614425,32000.0,176.5,98.0,-1.6,-0.3,1.07,GOOD
1790983951409,1115,2043.0,-157.01200706701587,32000.0,176.5,98.0,-1.6,-0.3,1.07,GOOD
1790983951409,1116,2172.0,-80.71532800287623,32000.0,176.5,98.0,-1.6,-0.3,1.07,GOOD
1790983951409,1117,2136.0,-5.115702861207865,32000.0,176.5,98.0,-1.6,-0.3,1.07,GOOD
1790983951409,1118,2107.0,45.32410333927297,32000.0,176.5,98.0,-1.6,-0.3,1.07,GOOD
1790983951409,1119,2092.0,52.94688788364856,32000.0,176.5,98.0,-1.6,-0.3,1.07,GOOD
1790983951409,1120,2022.0,29.071263134134444,32000.0,176.5,98.0,-1.6,-0.3,1.07,GOOD
1790983951409,1121,2048.0,-1.411806577449882,32000.0,176.5,98.0,-1.6,-0.3,1.07,GOOD
1790983951409,1122,2033.0,-25.846480049523965,32000.0,176.5,98.0,-1.6,-0.3,1.07,GOOD
1790983951409,1123,2023.0,-46.88116366953992,32000.0,176.5,98.0,-1.6,-0.3,1.07,GOOD
1790983951409,1124,1907.0,-72.33179435665339,32000.0,176.5,98.0,-1.6,-0.3,1.07,GOOD
1790983951409,1125,1960.0,-101.86846582205928,32000.0,176.5,98.0,-1.6,-0.3,1.07,GOOD
1790983951500,1126,1978.0,-122.14690284353904,32000.0,176.5,98.0,-1.7,-0.3,1.08,GOOD
1790983951500,1127,1972.0,-125.20678259112171,32000.0,176.5,98.0,-1.7,-0.3,1.08,GOOD
1790983951500,1128,1820.0,-128.16848905823633,32000.0,176.5,98.0,-1.7,-0.3,1.08,GOOD
1790983951500,1129,1819.0,-154.2107314130093,32000.0,176.5,98.0,-1.7,-0.3,1.08,GOOD
1790983951500,1130,1854.0,-196.06778251811068,32000.0,176.5,98.0,-1.7,-0.3,1.08,GOOD
1790983951500,1131,1857.0,-224.86926209141146,32000.0,176.5,98.0,-1.7,-0.3,1.08,GOOD
1790983951500,1132,1896.0,-229.92275988167327,32000.0,176.5,98.0,-1.7,-0.3,1.08,GOOD
1790983951500,1133,1853.0,-222.72238716213948,32000.0,176.5,98.0,-1.7,-0.3,1.08,GOOD
1790983951500,1134,1844.0,-214.24017906877424,32000.0,176.5,98.0,-1.7,-0.3,1.08,GOOD
1790983951500,1135,1849.0,-205.46955494138814,32000.0,176.5,98.0,-1.7,-0.3,1.08,GOOD
1790983951500,1136,2123.0,-184.9985805782076,32000.0,176.5,98.0,-1.7,-0.3,1.08,GOOD
1790983951500,1137,2099.0,-136.63275397971688,32000.0,176.5,98.0,-1.7,-0.3,1.08,GOOD
1790983951500,1138,2084.0,-67.18448782087884,32000.0,176.5,98.0,-1.7,-0.3,1.08,GOOD
1790983951500,1139,1973.0,-7.95010306518699,32000.0,176.5,98.0,-1.7,-0.3,1.08,GOOD
1790983951500,1140,2015.0,19.285609019072147,32000.0,176.5,98.0,-1.7,-0.3,1.08,GOOD
1790983951500,1141,2016.0,15.611116239071263,32000.0,176.5,98.0,-1.7,-0.3,1.08,GOOD
1790983951500,1142,2007.0,-9.626131620972707,32000.0,176.5,98.0,-1.7,-0.3,1.08,GOOD
1790983951500,1143,1870.0,-50.23690251929858,32000.0,176.5,98.0,-1.7,-0.3,1.08,GOOD
1790983951500,1144,1914.0,-95.77147077724484,32000.0,176.5,98.0,-1.7,-0.3,1.08,GOOD
1790983951500,1145,1944.0,-124.27449323093947,32000.0,176.5,98.0,-1.7,-0.3,1.08,GOOD
1790983951500,1146,1941.0,-124.76194430227477,32000.0,176.5,98.0,-1.7,-0.3,1.08,GOOD
1790983951500,1147,1812.0,-120.4339951332955,32000.0,176.5,98.0,-1.7,-0.3,1.08,GOOD
1790983951500,1148,1812.0,-141.4361187118034,32000.0,176.5,98.0,-1.7,-0.3,1.08,GOOD
1790983951500,1149,1825.0,-180.45698683780896,32000.0,176.5,98.0,-1.7,-0.3,1.08,GOOD
1790983951500,1150,1832.0,-205.39870112009152,32000.0,176.5,98.0,-1.7,-0.3,1.08,GOOD
1790983951641,1151,1922.0,-203.67050486767516,32000.0,176.5,98.0,-1.6,-0.3,1.07,GOOD
1790983951641,1152,1832.0,-188.91407861386273,32000.0,176.5,98.0,-1.6,-0.3,1.07,GOOD
1790983951641,1153,1846.0,-178.59293467907344,32000.0,176.5,98.0,-1.6,-0.3,1.07,GOOD
1790983951641,1154,1853.0,-173.27469989928682,32000.0,176.5,98.0,-1.6,-0.3,1.07,GOOD
1790983951641,1155,2126.0,-152.02681082030128,32000.0,176.5,98.0,-1.6,-0.3,1.07,GOOD
1790983951641,1156,2085.0,-96.78684002053201,32000.0,176.5,98.0,-1.6,-0.3,1.07,GOOD
1790983951641,1157,2063.0,-24.63052767215911,32000.0,176.5,98.0,-1.6,-0.3,1.07,GOOD
1790983951641,1158,2065.0,30.50470980877805,32000.0,176.5,98.0,-1.6,-0.3,1.07,GOOD
1790983951641,1159,2082.0,62.005138365253856,32000.0,176.5,98.0,-1.6,-0.3,1.07,GOOD
1790983951641,1160,2094.0,80.9063689795845,32000.0,176.5,98.0,-1.6,-0.3,1.07,GOOD
1790983951641,1161,2084.0,85.82540354207507,32000.0,176.5,98.0,-1.6,-0.3,1.07,GOOD
1790983951641,1162,2086.0,71.87459904321997,32000.0,176.5,98.0,-1.6,-0.3,1.07,GOOD
1790983951641,1163,2042.0,50.5424601862206,32000.0,176.5,98.0,-1.6,-0.3,1.07,GOOD
1790983951641,1164,2073.0,41.06588735841686,32000.0,176.5,98.0,-1.6,-0.3,1.07,GOOD
1790983951641,1165,2081.0,48.10325444301812,32000.0,176.5,98.0,-1.6,-0.3,1.07,GOOD
1790983951641,1166,2073.0,56.70104170418688,32000.0,176.5,98.0,-1.6,-0.3,1.07,GOOD
1790983951641,1167,1776.0,40.18058819217046,32000.0,176.5,98.0,-1.6,-0.3,1.07,GOOD
1790983951641,1168,1794.0,-20.354477209542726,32000.0,176.5,98.0,-1.6,-0.3,1.07,GOOD
1790983951641,1169,1815.0,-105.6333321412744,32000.0,176.5,98.0,-1.6,-0.3,1.07,GOOD
1790983951641,1170,1825.0,-174.12598140908,32000.0,176.5,98.0,-1.6,-0.3,1.07,GOOD
1790983951641,1171,1829.0,-210.90781046934381,32000.0,176.5,98.0,-1.6,-0.3,1.07,GOOD
1790983951641,1172,1829.0,-224.02316266551642,32000.0,176.5,98.0,-1.6,-0.3,1.07,GOOD
1790983951641,1173,1851.0,-214.61636455514125,32000.0,176.5,98.0,-1.6,-0.3,1.07,GOOD
1790983951641,1174,1855.0,-182.0919362878085,32000.0,176.5,98.0,-1.6,-0.3,1.07,GOOD
1790983951641,1175,2098.0,-134.3252687326147,32000.0,176.5,98.0,-1.6,-0.3,1.07,GOOD
1790983951642,1176,2063.0,-77.74626455408314,32000.0,176.5,98.0,-1.6,-0.3,1.07,GOOD
1790983951642,1177,2063.0,-19.35384920747461,32000.0,176.5,98.0,-1.6,-0.3,1.07,GOOD
1790983951642,1178,2178.0,36.709004798032154,32000.0,176.5,98.0,-1.6,-0.3,1.07,GOOD
1790983951642,1179,2168.0,97.26859265271057,32000.0,176.5,98.0,-1.6,-0.3,1.07,GOOD
1790983951642,1180,2152.0,153.22920205520208,32000.0,176.5,98.0,-1.6,-0.3,1.07,GOOD
1790983951642,1181,2128.0,175.68355608025186,32000.0,176.5,98.0,-1.6,-0.3,1.07,GOOD
1790983951642,1182,2006.0,153.65752533523633,32000.0,176.5,98.0,-1.6,-0.3,1.07,GOOD
1790983951642,1183,2046.0,106.91604344590512,32000.0,176.5,98.0,-1.6,-0.3,1.07,GOOD
1790983951642,1184,2062.0,66.70733115057148,32000.0,176.5,98.0,-1.6,-0.3,1.07,GOOD
1790983951642,1185,2047.0,46.620134324377304,32000.0,176.5,98.0,-1.6,-0.3,1.07,GOOD
1790983951642,1186,1799.0,25.29148080611385,32000.0,176.5,98.0,-1.6,-0.3,1.07,GOOD
1790983951642,1187,1852.0,-24.94111039978634,32000.0,176.5,98.0,-1.6,-0.3,1.07,GOOD
1790983951642,1188,1877.0,-89.83312953619513,32000.0,176.5,98.0,-1.6,-0.3,1.07,GOOD
1790983951642,1189,1895.0,-130.42376518948774,32000.0,176.5,98.0,-1.6,-0.3,1.07,GOOD
1790983951642,1190,1878.0,-139.40007246344908,32000.0,176.5,98.0,-1.6,-0.3,1.07,GOOD
1790983951642,1191,1848.0,-138.54910015157324,32000.0,176.5,98.0,-1.6,-0.3,1.07,GOOD
1790983951642,1192,1857.0,-139.10000041942595,32000.0,176.5,98.0,-1.6,-0.3,1.07,GOOD
1790983951642,1193,1855.0,-134.33763276146288,32000.0,176.5,98.0,-1.6,-0.3,1.07,GOOD
1790983951642,1194,2035.0,-116.1935121055758,32000.0,176.5,98.0,-1.6,-0.3,1.07,GOOD
1790983951642,1195,1970.0,-84.7607473154813,32000.0,176.5,98.0,-1.6,-0.3,1.07,GOOD
1790983951642,1196,1962.0,-51.989007936570935,32000.0,176.5,98.0,-1.6,-0.3,1.07,GOOD
1790983951642,1197,1960.0,-28.632857664668393,32000.0,176.5,98.0,-1.6,-0.3,1.07,GOOD
1790983951642,1198,2162.0,-3.4528566394983846,32000.0,176.5,98.0,-1.6,-0.3,1.07,GOOD
1790983951642,1199,2135.0,40.427647874854514,32000.0,176.5,98.0,-1.6,-0.3,1.07,GOOD
1790983951642,1200,2127.0,91.27381251654342,32000.0,176.5,98.0,-1.6,-0.3,1.07,GOOD
1790983951846,1201,2011.0,119.24007123483648,32000.0,74.2,98.0,-1.6,-0.2,1.08,GOOD
1790983951846,1202,2054.0,115.85308857975457,32000.0,74.2,98.0,-1.6,-0.2,1.08,GOOD
1790983951846,1203,2062.0,99.2609766467109,32000.0,74.2,98.0,-1.6,-0.2,1.08,GOOD
1790983951846,1204,2058.0,83.51724814014617,32000.0,74.2,98.0,-1.6,-0.2,1.08,GOOD
1790983951846,1205,1860.0,57.62019044327809,32000.0,74.2,98.0,-1.6,-0.2,1.08,GOOD
1790983951846,1206,1882.0,6.999828474611915,32000.0,74.2,98.0,-1.6,-0.2,1.08,GOOD
1790983951846,1207,1915.0,-50.45947856297272,32000.0,74.2,98.0,-1.6,-0.2,1.08,GOOD
1790983951846,1208,1918.0,-82.01852860046424,32000.0,74.2,98.0,-1.6,-0.2,1.08,GOOD
1790983951846,1209,1930.0,-86.09691956850732,32000.0,74.2,98.0,-1.6,-0.2,1.08,GOOD
1790983951846,1210,1895.0,-84.78325268288805,32000.0,74.2,98.0,-1.6,-0.2,1.08,GOOD
1790983951846,1211,1892.0,-86.9784516770296,32000.0,74.2,98.0,-1.6,-0.2,1.08,GOOD
1790983951846,1212,1887.0,-84.36088750921742,32000.0,74.2,98.0,-1.6,-0.2,1.08,GOOD
1790983951846,1213,2020.0,-69.66843763041379,32000.0,74.2,98.0,-1.6,-0.2,1.08,GOOD
1790983951846,1214,1958.0,-47.34020674627931,32000.0,74.2,98.0,-1.6,-0.2,1.08,GOOD
1790983951846,1215,1934.0,-31.934989229829085,32000.0,74.2,98.0,-1.6,-0.2,1.08,GOOD
1790983951846,1216,1937.0,-29.52465616581612,32000.0,74.2,98.0,-1.6,-0.2,1.08,GOOD
1790983951846,1217,2241.0,-16.0495660723519,32000.0,74.2,98.0,-1.6,-0.2,1.08,GOOD
1790983951846,1218,2225.0,40.396789953784555,32000.0,74.2,98.0,-1.6,-0.2,1.08,GOOD
1790983951846,1219,2217.0,127.01775985908353,32000.0,74.2,98.0,-1.6,-0.2,1.08,GOOD
1790983951846,1220,2043.0,191.42006270008585,32000.0,74.2,98.0,-1.6,-0.2,1.08,GOOD
1790983951846,1221,2081.0,202.41165720415864,32000.0,74.2,98.0,-1.6,-0.2,1.08,GOOD
1790983951846,1222,2084.0,174.9259740332053,32000.0,74.2,98.0,-1.6,-0.2,1.08,GOOD
1790983951846,1223,2062.0,135.2408414213565,32000.0,74.2,98.0,-1.6,-0.2,1.08,GOOD
1790983951846,1224,1785.0,81.17184482992384,32000.0,74.2,98.0,-1.6,-0.2,1.08,GOOD
1790983951846,1225,1887.0,1.4375636492659467,32000.0,74.2,98.0,-1.6,-0.2,1.08,GOOD
1790983952035,1226,1909.0,-75.38913619325525,32000.0,74.2,98.0,-1.6,-0.2,1.08,LEAD_OFF
1790983952035,1227,1911.0,-107.6621332106091,32000.0,74.2,98.0,-1.6,-0.2,1.08,LEAD_OFF
1790983952035,1228,1925.0,-100.93691316908547,32000.0,74.2,98.0,-1.6,-0.2,1.08,LEAD_OFF
1790983952035,1229,1896.0,-89.1039655292023,32000.0,74.2,98.0,-1.6,-0.2,1.08,LEAD_OFF
1790983952035,1230,1898.0,-85.01666298524128,32000.0,74.2,98.0,-1.6,-0.2,1.08,LEAD_OFF
1790983952035,1231,1888.0,-78.88765982985265,32000.0,74.2,98.0,-1.6,-0.2,1.08,LEAD_OFF
1790983952035,1232,2060.0,-60.78948753391844,32000.0,74.2,98.0,-1.6,-0.2,1.08,LEAD_OFF
1790983952035,1233,2013.0,-31.478293820565185,32000.0,74.2,98.0,-1.6,-0.2,1.08,LEAD_OFF
1790983952035,1234,2004.0,-3.1800036182506908,32000.0,74.2,98.0,-1.6,-0.2,1.08,LEAD_OFF
1790983952035,1235,2003.0,15.781120805763813,32000.0,74.2,98.0,-1.6,-0.2,1.08,LEAD_OFF
1790983952035,1236,2165.0,38.77169038128745,32000.0,74.2,98.0,-1.6,-0.2,1.08,LEAD_OFF
1790983952035,1237,2164.0,81.45255142384842,32000.0,74.2,98.0,-1.6,-0.2,1.08,LEAD_OFF
1790983952035,1238,2163.0,130.4747256532229,32000.0,74.2,98.0,-1.6,-0.2,1.08,LEAD_OFF
1790983952035,1239,2602.0,177.72864541069347,32000.0,74.2,98.0,-1.6,-0.2,1.08,LEAD_OFF
1790983952035,1240,2669.0,264.98104220895766,32000.0,74.2,98.0,-1.6,-0.2,1.08,LEAD_OFF
1790983952035,1241,2714.0,418.82283998468154,32000.0,74.2,98.0,-1.6,-0.2,1.08,LEAD_OFF
1790983952035,1242,2732.0,589.6085225827239,32000.0,74.2,98.0,-1.6,-0.2,1.08,LEAD_OFF
1790983952035,1243,1899.0,674.5339443660389,32000.0,74.2,98.0,-1.6,-0.2,1.08,LEAD_OFF
1790983952035,1244,1880.0,574.2162496346016,32000.0,74.2,98.0,-1.6,-0.2,1.08,LEAD_OFF
1790983952035,1245,1854.0,305.3951853511941,32000.0,74.2,98.0,-1.6,-0.2,1.08,LEAD_OFF
1790983952035,1246,1822.0,9.041865061166433,32000.0,74.2,98.0,-1.6,-0.2,1.08,LEAD_OFF
1790983952035,1247,1698.0,-202.66908601618783,32000.0,74.2,98.0,-1.6,-0.2,1.08,LEAD_OFF
1790983952035,1248,1674.0,-313.6869261051748,32000.0,74.2,98.0,-1.6,-0.2,1.08,LEAD_OFF
1790983952035,1249,1654.0,-349.70077776033924,32000.0,74.2,98.0,-1.6,-0.2,1.08,LEAD_OFF
1790983952035,1250,1615.0,-343.35366851396,32000.0,74.2,98.0,-1.6,-0.2,1.08,LEAD_OFF
1790983952036,1251,2101.0,-314.59800899380946,32000.0,74.2,98.0,-1.6,-0.2,1.08,LEAD_OFF
1790983952036,1252,2082.0,-248.1669273714953,32000.0,74.2,98.0,-1.6,-0.2,1.08,LEAD_OFF
1790983952036,1253,2096.0,-134.70481005964223,32000.0,74.2,98.0,-1.6,-0.2,1.08,LEAD_OFF
1790983952036,1254,2108.0,-4.701914341503045,32000.0,74.2,98.0,-1.6,-0.2,1.08,LEAD_OFF
1790983952036,1255,2155.0,105.98605508701219,32000.0,74.2,98.0,-1.6,-0.2,1.08,LEAD_OFF
1790983952036,1256,2136.0,171.76829052505383,32000.0,74.2,98.0,-1.6,-0.2,1.08,LEAD_OFF
1790983952036,1257,2147.0,178.11350329264772,32000.0,74.2,98.0,-1.6,-0.2,1.08,LEAD_OFF
1790983952036,1258,2183.0,144.85338735531832,32000.0,74.2,98.0,-1.6,-0.2,1.08,LEAD_OFF
1790983952036,1259,2222.0,123.45039630747986,32000.0,74.2,98.0,-1.6,-0.2,1.08,LEAD_OFF
1790983952036,1260,2237.0,146.88624582707777,32000.0,74.2,98.0,-1.6,-0.2,1.08,LEAD_OFF
1790983952036,1261,2227.0,194.34988544181124,32000.0,74.2,98.0,-1.6,-0.2,1.08,LEAD_OFF
1790983952036,1262,2249.0,221.91085608198028,32000.0,74.2,98.0,-1.6,-0.2,1.08,LEAD_OFF
1790983952036,1263,1866.0,202.69452263766857,32000.0,74.2,98.0,-1.6,-0.2,1.08,LEAD_OFF
1790983952036,1264,1919.0,131.4068391720768,32000.0,74.2,98.0,-1.6,-0.2,1.08,LEAD_OFF
1790983952036,1265,1904.0,32.4100044774011,32000.0,74.2,98.0,-1.6,-0.2,1.08,LEAD_OFF
1790983952036,1266,1885.0,-57.55409817942218,32000.0,74.2,98.0,-1.6,-0.2,1.08,LEAD_OFF
1790983952036,1267,1996.0,-121.8478554590479,32000.0,74.2,98.0,-1.6,-0.2,1.08,LEAD_OFF
1790983952036,1268,2002.0,-146.54409756855785,32000.0,74.2,98.0,-1.6,-0.2,1.08,LEAD_OFF
1790983952036,1269,2006.0,-117.10418709642768,32000.0,74.2,98.0,-1.6,-0.2,1.08,LEAD_OFF
1790983952036,1270,1959.0,-51.94192064534389,32000.0,74.2,98.0,-1.6,-0.2,1.08,LEAD_OFF
1790983952036,1271,2146.0,6.270801858169219,32000.0,74.2,98.0,-1.6,-0.2,1.08,LEAD_OFF
1790983952036,1272,2113.0,36.47809646382709,32000.0,74.2,98.0,-1.6,-0.2,1.08,LEAD_OFF
1790983952036,1273,2129.0,49.70743860557022,32000.0,74.2,98.0,-1.6,-0.2,1.08,LEAD_OFF
1790983952036,1274,2130.0,67.00453743148094,32000.0,74.2,98.0,-1.6,-0.2,1.08,LEAD_OFF
1790983952036,1275,2257.0,103.04591009727474,32000.0,74.2,98.0,-1.6,-0.2,1.08,LEAD_OFF
1790983952194,1276,2226.0,151.63600725398518,32000.0,74.2,98.0,-1.7,-0.2,1.08,GOOD
1790983952194,1277,2243.0,186.69202193191506,32000.0,74.2,98.0,-1.7,-0.2,1.08,GOOD
1790983952194,1278,2171.0,192.48391822766604,32000.0,74.2,98.0,-1.7,-0.2,1.08,GOOD
1790983952194,1279,2220.0,182.92635316002713,32000.0,74.2,98.0,-1.7,-0.2,1.08,GOOD
1790983952194,1280,2205.0,179.8235447608928,32000.0,74.2,98.0,-1.7,-0.2,1.08,GOOD
1790983952194,1281,2184.0,181.21463416006998,32000.0,74.2,98.0,-1.7,-0.2,1.08,GOOD
1790983952194,1282,1964.0,159.44919615056483,32000.0,74.2,98.0,-1.7,-0.2,1.08,GOOD
1790983952194,1283,2017.0,97.45302727300147,32000.0,74.2,98.0,-1.7,-0.2,1.08,GOOD
1790983952194,1284,2049.0,23.828566774563242,32000.0,74.2,98.0,-1.7,-0.2,1.08,GOOD
1790983952194,1285,2021.0,-18.629837184915182,32000.0,74.2,98.0,-1.7,-0.2,1.08,GOOD
1790983952194,1286,2037.0,-28.18860820020842,32000.0,74.2,98.0,-1.7,-0.2,1.08,GOOD
1790983952194,1287,2034.0,-29.12077718312556,32000.0,74.2,98.0,-1.7,-0.2,1.08,GOOD
1790983952194,1288,2077.0,-27.547556208935255,32000.0,74.2,98.0,-1.7,-0.2,1.08,GOOD
1790983952194,1289,2097.0,-11.607486908654055,32000.0,74.2,98.0,-1.7,-0.2,1.08,GOOD
1790983952194,1290,2259.0,25.889224075057953,32000.0,74.2,98.0,-1.7,-0.2,1.08,GOOD
1790983952194,1291,2176.0,76.47702864448647,32000.0,74.2,98.0,-1.7,-0.2,1.08,GOOD
1790983952194,1292,2171.0,117.55656953124213,32000.0,74.2,98.0,-1.7,-0.2,1.08,GOOD
1790983952194,1293,2187.0,135.26350346428734,32000.0,74.2,98.0,-1.7,-0.2,1.08,GOOD
1790983952194,1294,2488.0,151.5862333854729,32000.0,74.2,98.0,-1.7,-0.2,1.08,GOOD
1790983952194,1295,2448.0,201.50622440800183,32000.0,74.2,98.0,-1.7,-0.2,1.08,GOOD
1790983952194,1296,2418.0,277.2484115498457,32000.0,74.2,98.0,-1.7,-0.2,1.08,GOOD
1790983952194,1297,2439.0,337.8748514693924,32000.0,74.2,98.0,-1.7,-0.2,1.08,GOOD
1790983952194,1298,2209.0,358.9779845341431,32000.0,74.2,98.0,-1.7,-0.2,1.08,GOOD
1790983952194,1299,2231.0,331.76428589473784,32000.0,74.2,98.0,-1.7,-0.2,1.08,GOOD
1790983952194,1300,2196.0,259.73836096871764,32000.0,74.2,98.0,-1.7,-0.2,1.08,GOOD
1790983952196,1301,2172.0,168.07209611899776,32000.0,74.2,98.0,-1.7,-0.2,1.08,GOOD
1790983952196,1302,1881.0,78.5821646538069,32000.0,74.2,98.0,-1.7,-0.2,1.08,GOOD
1790983952196,1303,1929.0,-6.816345050963875,32000.0,74.2,98.0,-1.7,-0.2,1.08,GOOD
1790983952196,1304,1924.0,-83.14517510452637,32000.0,74.2,98.0,-1.7,-0.2,1.08,GOOD
1790983952196,1305,1874.0,-141.44390806294703,32000.0,74.2,98.0,-1.7,-0.2,1.08,GOOD
1790983952196,1306,1770.0,-191.53598967641324,32000.0,74.2,98.0,-1.7,-0.2,1.08,GOOD
1790983952196,1307,1806.0,-242.26511199327038,32000.0,74.2,98.0,-1.7,-0.2,1.08,GOOD
1790983952196,1308,1853.0,-274.760194112405,32000.0,74.2,98.0,-1.7,-0.2,1.08,GOOD
1790983952196,1309,1849.0,-270.6030375219194,32000.0,74.2,98.0,-1.7,-0.2,1.08,GOOD
1790983952196,1310,2041.0,-238.7034153829059,32000.0,74.2,98.0,-1.7,-0.2,1.08,GOOD
1790983952196,1311,1990.0,-193.2981164540098,32000.0,74.2,98.0,-1.7,-0.2,1.08,GOOD
1790983952196,1312,2009.0,-140.7800912690843,32000.0,74.2,98.0,-1.7,-0.2,1.08,GOOD
1790983952196,1313,2028.0,-87.17648789082757,32000.0,74.2,98.0,-1.7,-0.2,1.08,GOOD
1790983952196,1314,2141.0,-36.977322613241675,32000.0,74.2,98.0,-1.7,-0.2,1.08,GOOD
1790983952196,1315,2093.0,2.6778399242762863,32000.0,74.2,98.0,-1.7,-0.2,1.08,GOOD
1790983952196,1316,2080.0,20.405453044698355,32000.0,74.2,98.0,-1.7,-0.2,1.08,GOOD
1790983952196,1317,2130.0,20.201336570556755,32000.0,74.2,98.0,-1.7,-0.2,1.08,GOOD
1790983952196,1318,2015.0,21.318989564944346,32000.0,74.2,98.0,-1.7,-0.2,1.08,GOOD
1790983952196,1319,2062.0,24.672665481887293,32000.0,74.2,98.0,-1.7,-0.2,1.08,GOOD
1790983952196,1320,2039.0,13.799725828913177,32000.0,74.2,98.0,-1.7,-0.2,1.08,GOOD
1790983952196,1321,2024.0,-14.477363337922174,32000.0,74.2,98.0,-1.7,-0.2,1.08,GOOD
1790983952196,1322,1848.0,-50.76749272477307,32000.0,74.2,98.0,-1.7,-0.2,1.08,GOOD
1790983952196,1323,1921.0,-88.15122855549275,32000.0,74.2,98.0,-1.7,-0.2,1.08,GOOD
1790983952196,1324,1919.0,-120.13022661325611,32000.0,74.2,98.0,-1.7,-0.2,1.08,GOOD
1790983952196,1325,1878.0,-144.96226531935122,32000.0,74.2,98.0,-1.7,-0.2,1.08,GOOD
1790983952288,1326,1753.0,-174.1629219034234,32000.0,74.2,98.0,-1.6,-0.2,1.07,GOOD
1790983952288,1327,1809.0,-212.22381222304026,32000.0,74.2,98.0,-1.6,-0.2,1.07,GOOD
1790983952288,1328,1846.0,-239.34118409301712,32000.0,74.2,98.0,-1.6,-0.2,1.07,GOOD
1790983952288,1329,1829.0,-239.85876542446726,32000.0,74.2,98.0,-1.6,-0.2,1.07,GOOD
1790983952288,1330,1952.0,-223.67111827864244,32000.0,74.2,98.0,-1.6,-0.2,1.07,GOOD
1790983952288,1331,1911.0,-200.46553918132406,32000.0,74.2,98.0,-1.6,-0.2,1.07,GOOD
1790983952288,1332,1930.0,-167.9646319053769,32000.0,74.2,98.0,-1.6,-0.2,1.07,GOOD
1790983952288,1333,1943.0,-127.99701934095633,32000.0,74.2,98.0,-1.6,-0.2,1.07,GOOD
1790983952288,1334,2124.0,-85.93810188020022,32000.0,74.2,98.0,-1.6,-0.2,1.07,GOOD
1790983952288,1335,2038.0,-45.23316590675096,32000.0,74.2,98.0,-1.6,-0.2,1.07,GOOD
1790983952288,1336,2015.0,-14.919275643645936,32000.0,74.2,98.0,-1.6,-0.2,1.07,GOOD
1790983952288,1337,2048.0,0.09445589030056212,32000.0,74.2,98.0,-1.6,-0.2,1.07,GOOD
1790983952288,1338,2083.0,11.972501479065913,32000.0,74.2,98.0,-1.6,-0.2,1.07,GOOD
1790983952288,1339,2114.0,29.107407464349848,32000.0,74.2,98.0,-1.6,-0.2,1.07,GOOD
1790983952288,1340,2038.0,40.32491305499515,32000.0,74.2,98.0,-1.6,-0.2,1.07,GOOD
1790983952288,1341,1866.0,27.034110099648142,32000.0,74.2,98.0,-1.6,-0.2,1.07,GOOD
1790983952288,1342,1962.0,-13.208857442405339,32000.0,74.2,98.0,-1.6,-0.2,1.07,GOOD
1790983952288,1343,2016.0,-53.53949125865241,32000.0,74.2,98.0,-1.6,-0.2,1.07,GOOD
1790983952288,1344,2002.0,-69.15241415887192,32000.0,74.2,98.0,-1.6,-0.2,1.07,GOOD
1790983952288,1345,1800.0,-75.0402063561523,32000.0,74.2,98.0,-1.6,-0.2,1.07,GOOD
1790983952288,1346,1817.0,-101.12819276748016,32000.0,74.2,98.0,-1.6,-0.2,1.07,GOOD
1790983952288,1347,1863.0,-141.68641897070455,32000.0,74.2,98.0,-1.6,-0.2,1.07,GOOD
1790983952288,1348,1883.0,-166.90518277526422,32000.0,74.2,98.0,-1.6,-0.2,1.07,GOOD
1790983952288,1349,1849.0,-172.37027043516957,32000.0,74.2,98.0,-1.6,-0.2,1.07,GOOD
1790983952288,1350,1812.0,-177.44272570208656,32000.0,74.2,98.0,-1.6,-0.2,1.07,GOOD
1790983952368,1351,1809.0,-187.69498579049582,32000.0,74.2,98.0,-1.6,-0.2,1.08,GOOD
1790983952368,1352,1845.0,-189.42106949059445,32000.0,74.2,98.0,-1.6,-0.2,1.08,GOOD
1790983952368,1353,2127.0,-166.19517728600908,32000.0,74.2,98.0,-1.6,-0.2,1.08,GOOD
1790983952368,1354,2069.0,-110.67384041685726,32000.0,74.2,98.0,-1.6,-0.2,1.08,GOOD
1790983952368,1355,2029.0,-40.04723960869713,32000.0,74.2,98.0,-1.6,-0.2,1.08,GOOD
1790983952368,1356,2028.0,17.62199908228482,32000.0,74.2,98.0,-1.6,-0.2,1.08,GOOD
1790983952368,1357,2167.0,59.025511651314496,32000.0,74.2,98.0,-1.6,-0.2,1.08,GOOD
1790983952368,1358,2173.0,95.44236426926722,32000.0,74.2,98.0,-1.6,-0.2,1.08,GOOD
1790983952368,1359,2156.0,121.32651258164985,32000.0,74.2,98.0,-1.6,-0.2,1.08,GOOD
1790983952368,1360,2134.0,126.53947229779527,32000.0,74.2,98.0,-1.6,-0.2,1.08,GOOD
1790983952368,1361,2008.0,118.30205243328426,32000.0,74.2,98.0,-1.6,-0.2,1.08,GOOD
1790983952368,1362,2059.0,105.56091593386218,32000.0,74.2,98.0,-1.6,-0.2,1.08,GOOD
1790983952368,1363,2073.0,86.03268698934824,32000.0,74.2,98.0,-1.6,-0.2,1.08,GOOD
1790983952368,1364,2070.0,56.4999952784736,32000.0,74.2,98.0,-1.6,-0.2,1.08,GOOD
1790983952368,1365,1763.0,13.581661709501951,32000.0,74.2,98.0,-1.6,-0.2,1.08,GOOD
1790983952368,1366,1788.0,-47.00149481460164,32000.0,74.2,98.0,-1.6,-0.2,1.08,GOOD
1790983952368,1367,1801.0,-113.85219443205857,32000.0,74.2,98.0,-1.6,-0.2,1.08,GOOD
1790983952368,1368,1792.0,-169.39252585349257,32000.0,74.2,98.0,-1.6,-0.2,1.08,GOOD
1790983952368,1369,1844.0,-212.19714137090125,32000.0,74.2,98.0,-1.6,-0.2,1.08,GOOD
1790983952368,1370,1829.0,-237.12148854669059,32000.0,74.2,98.0,-1.6,-0.2,1.08,GOOD
1790983952368,1371,1851.0,-226.12754149275457,32000.0,74.2,98.0,-1.6,-0.2,1.08,GOOD
1790983952368,1372,1861.0,-179.33167318648515,32000.0,74.2,98.0,-1.6,-0.2,1.08,GOOD
1790983952368,1373,2098.0,-120.345181306336,32000.0,74.2,98.0,-1.6,-0.2,1.08,GOOD
1790983952368,1374,2046.0,-66.52007550047395,32000.0,74.2,98.0,-1.6,-0.2,1.08,GOOD
1790983952368,1375,2038.0,-20.715676650236986,32000.0,74.2,98.0,-1.6,-0.2,1.08,GOOD
1790983952609,1376,2044.0,20.90779070227386,-69.0,74.3,98.0,-1.7,-0.2,1.07,GOOD
1790983952609,1377,2092.0,63.02933343444151,-67.0,74.3,98.0,-1.7,-0.2,1.07,GOOD
1790983952609,1378,2105.0,96.19583752249476,-67.0,74.3,98.0,-1.7,-0.2,1.07,GOOD
1790983952609,1379,2096.0,102.76583227634555,-65.0,74.3,98.0,-1.7,-0.2,1.07,GOOD
1790983952609,1380,2106.0,87.26259258941273,-64.0,74.3,98.0,-1.7,-0.2,1.07,GOOD
1790983952609,1381,2041.0,76.99393802757638,-63.0,74.3,98.0,-1.7,-0.2,1.07,GOOD
1790983952609,1382,2034.0,83.21457718963987,-60.0,74.3,98.0,-1.7,-0.2,1.07,GOOD
1790983952609,1383,2036.0,85.52944180916685,-58.0,74.3,98.0,-1.7,-0.2,1.07,GOOD
1790983952609,1384,2023.0,63.30235594718608,-57.0,74.3,98.0,-1.7,-0.2,1.07,GOOD
1790983952609,1385,1693.0,12.516381397696883,-54.0,74.3,98.0,-1.7,-0.2,1.07,GOOD
1790983952609,1386,1756.0,-62.96427534981902,-53.0,74.3,98.0,-1.7,-0.2,1.07,GOOD
1790983952609,1387,1783.0,-142.33359432363122,-50.0,74.3,98.0,-1.7,-0.2,1.07,GOOD
1790983952609,1388,1770.0,-200.25331836474203,-48.0,74.3,98.0,-1.7,-0.2,1.07,GOOD
1790983952609,1389,1838.0,-233.52588281800936,-45.0,74.3,98.0,-1.7,-0.2,1.07,GOOD
1790983952609,1390,1859.0,-239.67639277316908,-44.0,74.3,98.0,-1.7,-0.2,1.07,GOOD
1790983952609,1391,1893.0,-205.75116566402983,-43.0,74.3,98.0,-1.7,-0.2,1.07,GOOD
1790983952609,1392,1898.0,-139.57521092653303,-42.0,74.3,98.0,-1.7,-0.2,1.07,GOOD
1790983952609,1393,2013.0,-74.64155005895569,-40.0,74.3,98.0,-1.7,-0.2,1.07,GOOD
1790983952609,1394,1950.0,-36.81435214502997,-38.0,74.3,98.0,-1.7,-0.2,1.07,GOOD
1790983952609,1395,1958.0,-25.115187979500472,-37.0,74.3,98.0,-1.7,-0.2,1.07,GOOD
1790983952609,1396,1957.0,-20.162550664654958,-33.0,74.3,98.0,-1.7,-0.2,1.07,GOOD
1790983952609,1397,2182.0,1.1150531090540028,-31.0,74.3,98.0,-1.7,-0.2,1.07,GOOD
1790983952609,1398,2159.0,48.20586760778406,-30.0,74.3,98.0,-1.7,-0.2,1.07,GOOD
1790983952609,1399,2160.0,104.26082115603488,-29.0,74.3,98.0,-1.7,-0.2,1.07,GOOD
1790983952609,1400,2204.0,148.93809467415323,-28.0,74.3,98.0,-1.7,-0.2,1.07,GOOD
1790983952610,1401,2107.0,182.34518201666063,32000.0,74.3,98.0,-1.7,-0.2,1.07,GOOD
1790983952610,1402,2119.0,201.73258415747185,32000.0,74.3,98.0,-1.7,-0.2,1.07,GOOD
1790983952610,1403,2091.0,191.51976004002668,32000.0,74.3,98.0,-1.7,-0.2,1.07,GOOD
1790983952610,1404,2093.0,150.49160020238304,32000.0,74.3,98.0,-1.7,-0.2,1.07,GOOD
1790983952610,1405,1949.0,97.91127943709503,32000.0,74.3,98.0,-1.7,-0.2,1.07,GOOD
1790983952610,1406,1998.0,53.564996547810566,32000.0,74.3,98.0,-1.7,-0.2,1.07,GOOD
1790983952610,1407,1994.0,26.401421607151352,32000.0,74.3,98.0,-1.7,-0.2,1.07,GOOD
1790983952610,1408,1965.0,10.484768461658524,32000.0,74.3,98.0,-1.7,-0.2,1.07,GOOD
1790983952610,1409,1810.0,-14.413899187566287,32000.0,74.3,98.0,-1.7,-0.2,1.07,GOOD
1790983952610,1410,1841.0,-59.436799425177384,32000.0,74.3,98.0,-1.7,-0.2,1.07,GOOD
1790983952610,1411,1859.0,-105.89841237936164,32000.0,74.3,98.0,-1.7,-0.2,1.07,GOOD
1790983952610,1412,1838.0,-130.7678883058026,32000.0,74.3,98.0,-1.7,-0.2,1.07,GOOD
1790983952610,1413,2091.0,-129.3975854287902,32000.0,74.3,98.0,-1.7,-0.2,1.07,GOOD
1790983952610,1414,2066.0,-96.04548094565826,32000.0,74.3,98.0,-1.7,-0.2,1.07,GOOD
1790983952610,1415,2090.0,-28.67379553767971,32000.0,74.3,98.0,-1.7,-0.2,1.07,GOOD
1790983952610,1416,2090.0,52.2117498143619,32000.0,74.3,98.0,-1.7,-0.2,1.07,GOOD
1790983952610,1417,2216.0,121.57845324778086,32000.0,74.3,98.0,-1.7,-0.2,1.07,GOOD
1790983952610,1418,2148.0,165.78406322618943,32000.0,74.3,98.0,-1.7,-0.2,1.07,GOOD
1790983952610,1419,2132.0,178.54128403842554,32000.0,74.3,98.0,-1.7,-0.2,1.07,GOOD
1790983952610,1420,2156.0,167.8636044669476,32000.0,74.3,98.0,-1.7,-0.2,1.07,GOOD
1790983952610,1421,2069.0,154.26467908147634,32000.0,74.3,98.0,-1.7,-0.2,1.07,GOOD
1790983952610,1422,2070.0,142.07728476779533,32000.0,74.3,98.0,-1.7,-0.2,1.07,GOOD
1790983952610,1423,2032.0,117.7511777865856,32000.0,74.3,98.0,-1.7,-0.2,1.07,GOOD
1790983952610,1424,1896.0,73.01400792680361,32000.0,74.3,98.0,-1.7,-0.2,1.07,GOOD
1790983952610,1425,1964.0,15.432832123904017,32000.0,74.3,98.0,-1.7,-0.2,1.07,GOOD
1790983952751,1426,2000.0,-29.354758173305676,32000.0,74.3,98.0,-1.6,-0.3,1.08,GOOD
