timestamp_ms,sample_seq,ecg_raw,ecg_cleaned,ppg_dc_ir,ecg_bpm,spo2_pct,pitch_deg,roll_deg,motion_g,signal_quality
1790984859008,1,1934.0,-101.33345807681175,32000.0,84.2,98.0,-1.2,-0.3,1.08,GOOD
1790984859008,2,2037.0,-102.77060517193388,32000.0,84.2,98.0,-1.2,-0.3,1.08,GOOD
1790984859008,3,1978.0,-73.80310626144544,32000.0,84.2,98.0,-1.2,-0.3,1.08,GOOD
1790984859008,4,2010.0,-33.33000335666347,32000.0,84.2,98.0,-1.2,-0.3,1.08,GOOD
1790984859008,5,2013.0,-2.322141952992716,32000.0,84.2,98.0,-1.2,-0.3,1.08,GOOD
1790984859008,6,2031.0,15.216030185094104,32000.0,84.2,98.0,-1.2,-0.3,1.08,GOOD
1790984859008,7,2038.0,24.67356675323727,32000.0,84.2,98.0,-1.2,-0.3,1.08,GOOD
1790984859008,8,2029.0,29.519454022976515,32000.0,84.2,98.0,-1.2,-0.3,1.08,GOOD
1790984859008,9,2206.0,37.71640043857545,32000.0,84.2,98.0,-1.2,-0.3,1.08,GOOD
1790984859008,10,2231.0,67.63754488752144,32000.0,84.2,98.0,-1.2,-0.3,1.08,GOOD
1790984859008,11,2259.0,125.71656712609729,32000.0,84.2,98.0,-1.2,-0.3,1.08,GOOD
1790984859008,12,2283.0,192.86834623872582,32000.0,84.2,98.0,-1.2,-0.3,1.08,GOOD
1790984859008,13,2893.0,270.3501841670729,32000.0,84.2,98.0,-1.2,-0.3,1.08,GOOD
1790984859008,14,2880.0,400.60457559040424,32000.0,84.2,98.0,-1.2,-0.3,1.08,GOOD
1790984859008,15,2911.0,586.6660694899035,32000.0,84.2,98.0,-1.2,-0.3,1.08,GOOD
1790984859008,16,2939.0,763.958341894277,32000.0,84.2,98.0,-1.2,-0.3,1.08,GOOD
1790984859008,17,1937.0,840.1468311588258,32000.0,84.2,98.0,-1.2,-0.3,1.08,GOOD
1790984859008,18,1922.0,716.9172620392776,32000.0,84.2,98.0,-1.2,-0.3,1.08,GOOD
1790984859008,19,1836.0,397.3580324989507,32000.0,84.2,98.0,-1.2,-0.3,1.08,GOOD
1790984859008,20,2051.0,35.43715024695349,32000.0,84.2,98.0,-1.2,-0.3,1.08,GOOD
1790984859008,21,2081.0,-199.5719064510487,32000.0,84.2,98.0,-1.2,-0.3,1.08,GOOD
1790984859008,22,2127.0,-241.36856019121697,32000.0,84.2,98.0,-1.2,-0.3,1.08,GOOD
1790984859008,23,2101.0,-136.7667133871817,32000.0,84.2,98.0,-1.2,-0.3,1.08,GOOD
1790984859008,24,1991.0,2.29505765129546,32000.0,84.2,98.0,-1.2,-0.3,1.08,GOOD
1790984859008,25,1977.0,69.88486270001889,32000.0,84.2,98.0,-1.2,-0.3,1.08,GOOD
1790984859262,26,2008.0,36.03156935615403,32000.0,84.2,98.0,-1.1,-0.2,1.09,GOOD
1790984859262,27,2038.0,-41.24380229907578,32000.0,84.2,98.0,-1.1,-0.2,1.09,GOOD
1790984859262,28,2003.0,-86.78700744053243,32000.0,84.2,98.0,-1.1,-0.2,1.09,GOOD
1790984859262,29,1977.0,-81.76399120925045,32000.0,84.2,98.0,-1.1,-0.2,1.09,GOOD
1790984859262,30,1958.0,-62.91192063630748,32000.0,84.2,98.0,-1.1,-0.2,1.09,GOOD
1790984859262,31,1990.0,-65.6671581366557,32000.0,84.2,98.0,-1.1,-0.2,1.09,GOOD
1790984859262,32,2022.0,-84.02932843690985,32000.0,84.2,98.0,-1.1,-0.2,1.09,GOOD
1790984859262,33,1991.0,-89.03847411557965,32000.0,84.2,98.0,-1.1,-0.2,1.09,GOOD
1790984859262,34,1934.0,-74.68398773975389,32000.0,84.2,98.0,-1.1,-0.2,1.09,GOOD
1790984859262,35,2029.0,-62.015906540378595,32000.0,84.2,98.0,-1.1,-0.2,1.09,GOOD
1790984859262,36,2020.0,-62.23547958013671,32000.0,84.2,98.0,-1.1,-0.2,1.09,GOOD
1790984859262,37,2070.0,-63.7463846952859,32000.0,84.2,98.0,-1.1,-0.2,1.09,GOOD
1790984859262,38,2095.0,-48.863061784432354,32000.0,84.2,98.0,-1.1,-0.2,1.09,GOOD
1790984859262,39,2049.0,-14.568678761660507,32000.0,84.2,98.0,-1.1,-0.2,1.09,GOOD
1790984859262,40,2028.0,16.949048462768104,32000.0,84.2,98.0,-1.1,-0.2,1.09,GOOD
1790984859262,41,2031.0,20.633030579622623,32000.0,84.2,98.0,-1.1,-0.2,1.09,GOOD
1790984859262,42,2145.0,2.8626698374815835,32000.0,84.2,98.0,-1.1,-0.2,1.09,GOOD
1790984859262,43,2139.0,-3.0885079804416984,32000.0,84.2,98.0,-1.1,-0.2,1.09,GOOD
1790984859262,44,2109.0,19.736289478950198,32000.0,84.2,98.0,-1.1,-0.2,1.09,GOOD
1790984859262,45,2087.0,51.868426556987586,32000.0,84.2,98.0,-1.1,-0.2,1.09,GOOD
1790984859262,46,2067.0,65.21374709604913,32000.0,84.2,98.0,-1.1,-0.2,1.09,GOOD
1790984859262,47,2074.0,52.01048707240807,32000.0,84.2,98.0,-1.1,-0.2,1.09,GOOD
1790984859262,48,2056.0,25.612607519626135,32000.0,84.2,98.0,-1.1,-0.2,1.09,GOOD
1790984859262,49,1976.0,0.3697929041316126,32000.0,84.2,98.0,-1.1,-0.2,1.09,GOOD
1790984859262,50,2241.0,-12.613825350279368,32000.0,84.2,98.0,-1.1,-0.2,1.09,GOOD
1790984859263,51,2257.0,7.198899614845836,32000.0,84.2,98.0,-1.1,-0.2,1.09,GOOD
1790984859263,52,2287.0,66.44368738222035,32000.0,84.2,98.0,-1.1,-0.2,1.09,GOOD
1790984859263,53,2302.0,140.39005040576876,32000.0,84.2,98.0,-1.1,-0.2,1.09,GOOD
1790984859263,54,2280.0,201.69903817180415,32000.0,84.2,98.0,-1.1,-0.2,1.09,GOOD
1790984859263,55,2278.0,236.29695165698269,32000.0,84.2,98.0,-1.1,-0.2,1.09,GOOD
1790984859263,56,2287.0,240.09789601813608,32000.0,84.2,98.0,-1.1,-0.2,1.09,GOOD
1790984859263,57,2326.0,222.5461978426362,32000.0,84.2,98.0,-1.1,-0.2,1.09,GOOD
1790984859263,58,2306.0,203.85084598892348,32000.0,84.2,98.0,-1.1,-0.2,1.09,GOOD
1790984859263,59,2368.0,201.58737652483268,32000.0,84.2,98.0,-1.1,-0.2,1.09,GOOD
1790984859263,60,2364.0,220.13596514338894,32000.0,84.2,98.0,-1.1,-0.2,1.09,GOOD
1790984859263,61,2364.0,246.9736277655764,32000.0,84.2,98.0,-1.1,-0.2,1.09,GOOD
1790984859263,62,2403.0,264.2237689916271,32000.0,84.2,98.0,-1.1,-0.2,1.09,GOOD
1790984859263,63,2371.0,267.9764770259475,32000.0,84.2,98.0,-1.1,-0.2,1.09,GOOD
1790984859263,64,2333.0,264.21209868633844,32000.0,84.2,98.0,-1.1,-0.2,1.09,GOOD
1790984859263,65,2296.0,253.35461321601096,32000.0,84.2,98.0,-1.1,-0.2,1.09,GOOD
1790984859263,66,2258.0,229.77792539427602,32000.0,84.2,98.0,-1.1,-0.2,1.09,GOOD
1790984859263,67,2191.0,188.81272914287368,32000.0,84.2,98.0,-1.1,-0.2,1.09,GOOD
1790984859263,68,2194.0,134.60406367488264,32000.0,84.2,98.0,-1.1,-0.2,1.09,GOOD
1790984859263,69,2146.0,82.29889521388156,32000.0,84.2,98.0,-1.1,-0.2,1.09,GOOD
1790984859263,70,2130.0,44.34505322328973,32000.0,84.2,98.0,-1.1,-0.2,1.09,GOOD
1790984859263,71,2081.0,17.900652298332346,32000.0,84.2,98.0,-1.1,-0.2,1.09,GOOD
1790984859263,72,2118.0,-6.317935768069606,32000.0,84.2,98.0,-1.1,-0.2,1.09,GOOD
1790984859263,73,2107.0,-28.188007014945537,32000.0,84.2,98.0,-1.1,-0.2,1.09,GOOD
1790984859263,74,2011.0,-43.96743393397625,32000.0,84.2,98.0,-1.1,-0.2,1.09,GOOD
1790984859263,75,1986.0,-60.62269578700415,32000.0,84.2,98.0,-1.1,-0.2,1.09,GOOD
1790984859379,76,2003.0,-85.54136455899956,32000.0,84.2,98.0,-1.3,-0.2,1.08,GOOD
1790984859379,77,2008.0,-113.42725189060474,32000.0,84.2,98.0,-1.3,-0.2,1.08,GOOD
1790984859379,78,1972.0,-135.9210429839024,32000.0,84.2,98.0,-1.3,-0.2,1.08,GOOD
1790984859379,79,1941.0,-151.64397497754126,32000.0,84.2,98.0,-1.3,-0.2,1.08,GOOD
1790984859379,80,1924.0,-162.93739143935923,32000.0,84.2,98.0,-1.3,-0.2,1.08,GOOD
1790984859379,81,1922.0,-172.20131365669081,32000.0,84.2,98.0,-1.3,-0.2,1.08,GOOD
1790984859379,82,1879.0,-184.222474472866,32000.0,84.2,98.0,-1.3,-0.2,1.08,GOOD
1790984859379,83,1877.0,-204.00841106078792,32000.0,84.2,98.0,-1.3,-0.2,1.08,GOOD
1790984859379,84,1838.0,-228.54231358860318,32000.0,84.2,98.0,-1.3,-0.2,1.08,GOOD
1790984859379,85,1806.0,-249.81107042781392,32000.0,84.2,98.0,-1.3,-0.2,1.08,GOOD
1790984859379,86,1930.0,-260.6465773783021,32000.0,84.2,98.0,-1.3,-0.2,1.08,GOOD
1790984859379,87,1952.0,-252.37650923831603,32000.0,84.2,98.0,-1.3,-0.2,1.08,GOOD
1790984859379,88,1949.0,-224.21465224910798,32000.0,84.2,98.0,-1.3,-0.2,1.08,GOOD
1790984859379,89,1944.0,-188.71517647641897,32000.0,84.2,98.0,-1.3,-0.2,1.08,GOOD
1790984859379,90,1888.0,-159.71224757266566,32000.0,84.2,98.0,-1.3,-0.2,1.08,GOOD
1790984859379,91,1920.0,-146.34438595614586,32000.0,84.2,98.0,-1.3,-0.2,1.08,GOOD
1790984859379,92,1935.0,-150.0217018520662,32000.0,84.2,98.0,-1.3,-0.2,1.08,GOOD
1790984859379,93,1915.0,-163.19026769698885,32000.0,84.2,98.0,-1.3,-0.2,1.08,GOOD
1790984859379,94,1958.0,-173.6289095308756,32000.0,84.2,98.0,-1.3,-0.2,1.08,GOOD
1790984859379,95,1901.0,-170.5072078763053,32000.0,84.2,98.0,-1.3,-0.2,1.08,GOOD
1790984859379,96,1876.0,-158.1287841625848,32000.0,84.2,98.0,-1.3,-0.2,1.08,GOOD
1790984859379,97,1954.0,-151.70891625806922,32000.0,84.2,98.0,-1.3,-0.2,1.08,GOOD
1790984859379,98,1997.0,-151.54061616393523,32000.0,84.2,98.0,-1.3,-0.2,1.08,GOOD
1790984859379,99,1975.0,-143.9484343809371,32000.0,84.2,98.0,-1.3,-0.2,1.08,GOOD
1790984859379,100,1985.0,-123.07411092796744,32000.0,84.2,98.0,-1.3,-0.2,1.08,GOOD
1790984859380,101,1893.0,-98.89180728100752,32000.0,84.2,98.0,-1.3,-0.2,1.08,GOOD
1790984859380,102,1893.0,-91.7892050587062,32000.0,84.2,98.0,-1.3,-0.2,1.08,GOOD
1790984859380,103,1896.0,-112.78292061120891,32000.0,84.2,98.0,-1.3,-0.2,1.08,GOOD
1790984859380,104,1899.0,-148.4460723517826,32000.0,84.2,98.0,-1.3,-0.2,1.08,GOOD
1790984859380,105,1975.0,-171.29050800379542,32000.0,84.2,98.0,-1.3,-0.2,1.08,GOOD
1790984859380,106,1980.0,-161.06155718773255,32000.0,84.2,98.0,-1.3,-0.2,1.08,GOOD
1790984859380,107,1993.0,-122.71408388132924,32000.0,84.2,98.0,-1.3,-0.2,1.08,GOOD
1790984859380,108,1990.0,-81.81984269374773,32000.0,84.2,98.0,-1.3,-0.2,1.08,GOOD
1790984859380,109,1987.0,-58.43530054113759,32000.0,84.2,98.0,-1.3,-0.2,1.08,GOOD
1790984859380,110,1964.0,-53.893404959744835,32000.0,84.2,98.0,-1.3,-0.2,1.08,GOOD
1790984859380,111,1960.0,-59.50254509661471,32000.0,84.2,98.0,-1.3,-0.2,1.08,GOOD
1790984859380,112,2005.0,-66.39472157166963,32000.0,84.2,98.0,-1.3,-0.2,1.08,GOOD
1790984859380,113,2028.0,-67.2337087872223,32000.0,84.2,98.0,-1.3,-0.2,1.08,GOOD
1790984859380,114,2013.0,-59.0290716580599,32000.0,84.2,98.0,-1.3,-0.2,1.08,GOOD
1790984859380,115,1988.0,-46.21588298388432,32000.0,84.2,98.0,-1.3,-0.2,1.08,GOOD
1790984859380,116,1787.0,-43.9660813477265,32000.0,84.2,98.0,-1.3,-0.2,1.08,GOOD
1790984859380,117,1808.0,-73.46421708745574,32000.0,84.2,98.0,-1.3,-0.2,1.08,GOOD
1790984859380,118,1797.0,-135.2215240096186,32000.0,84.2,98.0,-1.3,-0.2,1.08,GOOD
1790984859380,119,2020.0,-193.4315545960073,32000.0,84.2,98.0,-1.3,-0.2,1.08,GOOD
1790984859380,120,1995.0,-202.27556252534163,32000.0,84.2,98.0,-1.3,-0.2,1.08,GOOD
1790984859380,121,2013.0,-151.25446283844138,32000.0,84.2,98.0,-1.3,-0.2,1.08,GOOD
1790984859380,122,2033.0,-72.25891720038959,32000.0,84.2,98.0,-1.3,-0.2,1.08,GOOD
1790984859380,123,2017.0,-4.86856793137731,32000.0,84.2,98.0,-1.3,-0.2,1.08,GOOD
1790984859380,124,1982.0,25.035627746995473,32000.0,84.2,98.0,-1.3,-0.2,1.08,GOOD
1790984859380,125,1983.0,13.043493554902682,32000.0,84.2,98.0,-1.3,-0.2,1.08,GOOD
1790984859512,126,1999.0,-18.731908884846032,32000.0,84.2,98.0,-1.3,-0.3,1.08,GOOD
1790984859512,127,2061.0,-37.19077690135487,32000.0,84.2,98.0,-1.3,-0.3,1.08,GOOD
1790984859512,128,2031.0,-27.119912111652603,32000.0,84.2,98.0,-1.3,-0.3,1.08,GOOD
1790984859512,129,2023.0,-3.561931100581276,32000.0,84.2,98.0,-1.3,-0.3,1.08,GOOD
1790984859512,130,1996.0,9.275394784733395,32000.0,84.2,98.0,-1.3,-0.3,1.08,GOOD
1790984859512,131,1959.0,3.3476682597965643,32000.0,84.2,98.0,-1.3,-0.3,1.08,GOOD
1790984859512,132,1872.0,-17.762136245424283,32000.0,84.2,98.0,-1.3,-0.3,1.08,GOOD
1790984859512,133,1976.0,-48.28339202256187,32000.0,84.2,98.0,-1.3,-0.3,1.08,GOOD
1790984859512,134,1954.0,-75.30912613661224,32000.0,84.2,98.0,-1.3,-0.3,1.08,GOOD
1790984859512,135,1900.0,-89.3299276894522,32000.0,84.2,98.0,-1.3,-0.3,1.08,GOOD
1790984859512,136,1921.0,-94.17612138860073,32000.0,84.2,98.0,-1.3,-0.3,1.08,GOOD
1790984859512,137,1941.0,-92.10396946295903,32000.0,84.2,98.0,-1.3,-0.3,1.08,GOOD
1790984859512,138,2011.0,-79.4732693344906,32000.0,84.2,98.0,-1.3,-0.3,1.08,GOOD
1790984859512,139,1990.0,-58.41263518393696,32000.0,84.2,98.0,-1.3,-0.3,1.08,GOOD
1790984859512,140,1999.0,-37.90716865095303,32000.0,84.2,98.0,-1.3,-0.3,1.08,GOOD
1790984859512,141,2018.0,-21.677455119594327,32000.0,84.2,98.0,-1.3,-0.3,1.08,GOOD
1790984859512,142,2017.0,-4.939926919012871,32000.0,84.2,98.0,-1.3,-0.3,1.08,GOOD
1790984859512,143,1995.0,10.812094194190866,32000.0,84.2,98.0,-1.3,-0.3,1.08,GOOD
1790984859512,144,1969.0,13.629818335851827,32000.0,84.2,98.0,-1.3,-0.3,1.08,GOOD
1790984859512,145,2035.0,0.82120579398819,32000.0,84.2,98.0,-1.3,-0.3,1.08,GOOD
1790984859512,146,2060.0,-9.008219505699653,32000.0,84.2,98.0,-1.3,-0.3,1.08,GOOD
1790984859512,147,2074.0,3.0358879655415603,32000.0,84.2,98.0,-1.3,-0.3,1.08,GOOD
1790984859512,148,2037.0,31.151967071648613,32000.0,84.2,98.0,-1.3,-0.3,1.08,GOOD
1790984859512,149,2069.0,53.86682176141993,32000.0,84.2,98.0,-1.3,-0.3,1.08,GOOD
1790984859512,150,2059.0,60.739777958476466,32000.0,84.2,98.0,-1.3,-0.3,1.08,GOOD
1790984859619,151,2051.0,57.54000123408747,32000.0,85.1,98.0,-1.4,-0.3,1.07,GOOD
1790984859619,152,2042.0,52.09543295095763,32000.0,85.1,98.0,-1.4,-0.3,1.07,GOOD
1790984859619,153,1860.0,39.784693574577986,32000.0,85.1,98.0,-1.4,-0.3,1.07,GOOD
1790984859619,154,1859.0,3.9842048177168943,32000.0,85.1,98.0,-1.4,-0.3,1.07,GOOD
1790984859619,155,1839.0,-57.00399483295158,32000.0,85.1,98.0,-1.4,-0.3,1.07,GOOD
1790984859619,156,1868.0,-118.85662301908357,32000.0,85.1,98.0,-1.4,-0.3,1.07,GOOD
1790984859619,157,1990.0,-151.6195236172745,32000.0,85.1,98.0,-1.4,-0.3,1.07,GOOD
1790984859619,158,2000.0,-137.45955174568837,32000.0,85.1,98.0,-1.4,-0.3,1.07,GOOD
1790984859619,159,1994.0,-84.97017693437219,32000.0,85.1,98.0,-1.4,-0.3,1.07,GOOD
1790984859619,160,1957.0,-27.036154733448413,32000.0,85.1,98.0,-1.4,-0.3,1.07,GOOD
1790984859619,161,1978.0,6.6481872733910885,32000.0,85.1,98.0,-1.4,-0.3,1.07,GOOD
1790984859619,162,1989.0,10.528739140755068,32000.0,85.1,98.0,-1.4,-0.3,1.07,GOOD
1790984859619,163,1972.0,-2.0481777548219013,32000.0,85.1,98.0,-1.4,-0.3,1.07,GOOD
1790984859619,164,1933.0,-17.45977980473325,32000.0,85.1,98.0,-1.4,-0.3,1.07,GOOD
1790984859619,165,1912.0,-31.14569327542657,32000.0,85.1,98.0,-1.4,-0.3,1.07,GOOD
1790984859619,166,1927.0,-43.565020027978896,32000.0,85.1,98.0,-1.4,-0.3,1.07,GOOD
1790984859619,167,2068.0,-49.18985532635982,32000.0,85.1,98.0,-1.4,-0.3,1.07,GOOD
1790984859619,168,2053.0,-35.1824049220519,32000.0,85.1,98.0,-1.4,-0.3,1.07,GOOD
1790984859619,169,2072.0,0.7460420842421627,32000.0,85.1,98.0,-1.4,-0.3,1.07,GOOD
1790984859619,170,2088.0,45.82127138871292,32000.0,85.1,98.0,-1.4,-0.3,1.07,GOOD
1790984859619,171,2733.0,111.30828344368749,32000.0,85.1,98.0,-1.4,-0.3,1.07,GOOD
1790984859619,172,2751.0,243.10651384496333,32000.0,85.1,98.0,-1.4,-0.3,1.07,GOOD
1790984859619,173,2765.0,440.6401252835598,32000.0,85.1,98.0,-1.4,-0.3,1.07,GOOD
1790984859619,174,2783.0,632.5337841627838,32000.0,85.1,98.0,-1.4,-0.3,1.07,GOOD
1790984859619,175,2521.0,750.8634824430105,32000.0,85.1,98.0,-1.4,-0.3,1.07,GOOD
1790984859702,176,2486.0,759.2640935343309,32000.0,85.1,98.0,-1.3,-0.4,1.08,GOOD
1790984859702,177,2433.0,659.9739640024617,32000.0,85.1,98.0,-1.3,-0.4,1.08,GOOD
1790984859702,178,1837.0,483.44717895008046,32000.0,85.1,98.0,-1.3,-0.4,1.08,GOOD
1790984859702,179,1851.0,253.3853557896835,32000.0,85.1,98.0,-1.3,-0.4,1.08,GOOD
1790984859702,180,1844.0,18.034789627798283,32000.0,85.1,98.0,-1.3,-0.4,1.08,GOOD
1790984859702,181,1816.0,-153.5889420571749,32000.0,85.1,98.0,-1.3,-0.4,1.08,GOOD
1790984859702,182,1988.0,-237.8465726181472,32000.0,85.1,98.0,-1.3,-0.4,1.08,GOOD
1790984859702,183,2020.0,-244.82565476852312,32000.0,85.1,98.0,-1.3,-0.4,1.08,GOOD
1790984859702,184,2040.0,-185.94253783496737,32000.0,85.1,98.0,-1.3,-0.4,1.08,GOOD
1790984859702,185,1703.0,-101.45591098345555,32000.0,85.1,98.0,-1.3,-0.4,1.08,GOOD
1790984859702,186,1642.0,-70.50333068513994,32000.0,85.1,98.0,-1.3,-0.4,1.08,GOOD
1790984859702,187,1591.0,-144.27670589126478,32000.0,85.1,98.0,-1.3,-0.4,1.08,GOOD
1790984859702,188,1602.0,-289.16546026466494,32000.0,85.1,98.0,-1.3,-0.4,1.08,GOOD
1790984859702,189,2116.0,-401.29669818045556,32000.0,85.1,98.0,-1.3,-0.4,1.08,GOOD
1790984859702,190,2124.0,-372.9283342139346,32000.0,85.1,98.0,-1.3,-0.4,1.08,GOOD
1790984859702,191,2106.0,-201.61994763739654,32000.0,85.1,98.0,-1.3,-0.4,1.08,GOOD
1790984859702,192,2102.0,-1.8470809572550628,32000.0,85.1,98.0,-1.3,-0.4,1.08,GOOD
1790984859702,193,2026.0,118.74225597642791,32000.0,85.1,98.0,-1.3,-0.4,1.08,GOOD
1790984859702,194,2036.0,135.45292712092916,32000.0,85.1,98.0,-1.3,-0.4,1.08,GOOD
1790984859702,195,2034.0,87.62333288738648,32000.0,85.1,98.0,-1.3,-0.4,1.08,GOOD
1790984859702,196,2008.0,29.081064261625713,32000.0,85.1,98.0,-1.3,-0.4,1.08,GOOD
1790984859702,197,2076.0,-7.74555503804986,32000.0,85.1,98.0,-1.3,-0.4,1.08,GOOD
1790984859702,198,2069.0,-12.998125668620068,32000.0,85.1,98.0,-1.3,-0.4,1.08,GOOD
1790984859702,199,2080.0,6.82976043379544,32000.0,85.1,98.0,-1.3,-0.4,1.08,GOOD
1790984859702,200,2052.0,33.22803373917189,32000.0,85.1,98.0,-1.3,-0.4,1.08,GOOD
1790984859896,201,1949.0,44.615779218176094,32000.0,85.1,98.0,-1.3,-0.4,1.09,GOOD
1790984859896,202,1963.0,27.21135991663319,32000.0,85.1,98.0,-1.3,-0.4,1.09,GOOD
1790984859896,203,1962.0,-11.590818291241721,32000.0,85.1,98.0,-1.3,-0.4,1.09,GOOD
1790984859896,204,1969.0,-49.21722540038535,32000.0,85.1,98.0,-1.3,-0.4,1.09,GOOD
1790984859896,205,2188.0,-61.63175326282541,32000.0,85.1,98.0,-1.3,-0.4,1.09,GOOD
1790984859896,206,2141.0,-29.964047739358683,32000.0,85.1,98.0,-1.3,-0.4,1.09,GOOD
1790984859896,207,2167.0,37.45667575564339,32000.0,85.1,98.0,-1.3,-0.4,1.09,GOOD
1790984859896,208,2014.0,100.41284370434016,32000.0,85.1,98.0,-1.3,-0.4,1.09,GOOD
1790984859896,209,2145.0,124.19726597747564,32000.0,85.1,98.0,-1.3,-0.4,1.09,GOOD
1790984859896,210,2139.0,112.74526581690375,32000.0,85.1,98.0,-1.3,-0.4,1.09,GOOD
1790984859896,211,2132.0,92.97071906818397,32000.0,85.1,98.0,-1.3,-0.4,1.09,GOOD
1790984859896,212,2273.0,87.29110258975427,32000.0,85.1,98.0,-1.3,-0.4,1.09,GOOD
1790984859896,213,2252.0,111.87088452324467,32000.0,85.1,98.0,-1.3,-0.4,1.09,GOOD
1790984859896,214,2309.0,164.38680007184809,32000.0,85.1,98.0,-1.3,-0.4,1.09,GOOD
1790984859896,215,2294.0,219.2667466382706,32000.0,85.1,98.0,-1.3,-0.4,1.09,GOOD
1790984859896,216,2324.0,253.45401197838004,32000.0,85.1,98.0,-1.3,-0.4,1.09,GOOD
1790984859896,217,2330.0,265.15298885021855,32000.0,85.1,98.0,-1.3,-0.4,1.09,GOOD
1790984859896,218,2215.0,263.0936623540995,32000.0,85.1,98.0,-1.3,-0.4,1.09,GOOD
1790984859896,219,2256.0,248.1717674180966,32000.0,85.1,98.0,-1.3,-0.4,1.09,GOOD
1790984859896,220,2372.0,226.1748325853087,32000.0,85.1,98.0,-1.3,-0.4,1.09,GOOD
1790984859896,221,2373.0,217.64312816982925,32000.0,85.1,98.0,-1.3,-0.4,1.09,GOOD
1790984859896,222,2372.0,232.8616604605008,32000.0,85.1,98.0,-1.3,-0.4,1.09,GOOD
1790984859896,223,2391.0,262.7600905043869,32000.0,85.1,98.0,-1.3,-0.4,1.09,GOOD
1790984859896,224,2438.0,295.99584071750553,32000.0,85.1,98.0,-1.3,-0.4,1.09,GOOD
1790984859896,225,2423.0,323.4097904506284,32000.0,85.1,98.0,-1.3,-0.4,1.09,GOOD
1790984859897,226,2396.0,333.7474196936041,32000.0,85.1,98.0,-1.3,-0.4,1.09,GOOD
1790984859897,227,2322.0,320.2146074223343,32000.0,85.1,98.0,-1.3,-0.4,1.09,GOOD
1790984859897,228,2315.0,288.37718991567147,32000.0,85.1,98.0,-1.3,-0.4,1.09,GOOD
1790984859897,229,2343.0,253.11553655368036,32000.0,85.1,98.0,-1.3,-0.4,1.09,GOOD
1790984859897,230,2290.0,224.4331792434574,32000.0,85.1,98.0,-1.3,-0.4,1.09,GOOD
1790984859897,231,2092.0,191.05845959026487,32000.0,85.1,98.0,-1.3,-0.4,1.09,GOOD
1790984859897,232,2120.0,134.49928453314794,32000.0,85.1,98.0,-1.3,-0.4,1.09,GOOD
1790984859897,233,2118.0,65.14740240247633,32000.0,85.1,98.0,-1.3,-0.4,1.09,GOOD
1790984859897,234,2113.0,11.858868522327665,32000.0,85.1,98.0,-1.3,-0.4,1.09,GOOD
1790984859897,235,1916.0,-24.68863271749434,32000.0,85.1,98.0,-1.3,-0.4,1.09,GOOD
1790984859897,236,2007.0,-67.14186351298903,32000.0,85.1,98.0,-1.3,-0.4,1.09,GOOD
1790984859897,237,2012.0,-112.13571239304203,32000.0,85.1,98.0,-1.3,-0.4,1.09,GOOD
1790984859897,238,2004.0,-134.41111040593665,32000.0,85.1,98.0,-1.3,-0.4,1.09,GOOD
1790984859897,239,1963.0,-133.18949347299161,32000.0,85.1,98.0,-1.3,-0.4,1.09,GOOD
1790984859897,240,1943.0,-131.58266775983947,32000.0,85.1,98.0,-1.3,-0.4,1.09,GOOD
1790984859897,241,1859.0,-145.80724970852722,32000.0,85.1,98.0,-1.3,-0.4,1.09,GOOD
1790984859897,242,1871.0,-174.99138229969725,32000.0,85.1,98.0,-1.3,-0.4,1.09,GOOD
1790984859897,243,1992.0,-202.24232576477752,32000.0,85.1,98.0,-1.3,-0.4,1.09,GOOD
1790984859897,244,1978.0,-206.32287815277812,32000.0,85.1,98.0,-1.3,-0.4,1.09,GOOD
1790984859897,245,1969.0,-185.95729431454396,32000.0,85.1,98.0,-1.3,-0.4,1.09,GOOD
1790984859897,246,1867.0,-161.77885539271597,32000.0,85.1,98.0,-1.3,-0.4,1.09,GOOD
1790984859897,247,1904.0,-152.68353761737507,32000.0,85.1,98.0,-1.3,-0.4,1.09,GOOD
1790984859897,248,1879.0,-161.42036493168422,32000.0,85.1,98.0,-1.3,-0.4,1.09,GOOD
1790984859897,249,1823.0,-184.40150090621805,32000.0,85.1,98.0,-1.3,-0.4,1.09,GOOD
1790984859897,250,1894.0,-216.48261393153632,32000.0,85.1,98.0,-1.3,-0.4,1.09,GOOD
1790984860015,251,1929.0,-237.44715480786857,32000.0,85.1,98.0,-1.3,-0.4,1.08,GOOD
1790984860015,252,1937.0,-225.409579058616,32000.0,85.1,98.0,-1.3,-0.4,1.08,GOOD
1790984860015,253,1947.0,-186.5320428668524,32000.0,85.1,98.0,-1.3,-0.4,1.08,GOOD
1790984860015,254,1896.0,-149.9158003421042,32000.0,85.1,98.0,-1.3,-0.4,1.08,GOOD
1790984860015,255,1879.0,-139.33888362421953,32000.0,85.1,98.0,-1.3,-0.4,1.08,GOOD
1790984860015,256,1881.0,-153.85070257587586,32000.0,85.1,98.0,-1.3,-0.4,1.08,GOOD
1790984860015,257,1880.0,-173.99173405613976,32000.0,85.1,98.0,-1.3,-0.4,1.08,GOOD
1790984860015,258,1946.0,-183.05799308168952,32000.0,85.1,98.0,-1.3,-0.4,1.08,GOOD
1790984860015,259,1924.0,-176.89810098363972,32000.0,85.1,98.0,-1.3,-0.4,1.08,GOOD
1790984860015,260,1932.0,-161.4483235913603,32000.0,85.1,98.0,-1.3,-0.4,1.08,GOOD
1790984860015,261,1927.0,-144.09172835890178,32000.0,85.1,98.0,-1.3,-0.4,1.08,GOOD
1790984860015,262,2007.0,-125.13923801683816,32000.0,85.1,98.0,-1.3,-0.4,1.08,GOOD
1790984860015,263,2003.0,-101.74244055215324,32000.0,85.1,98.0,-1.3,-0.4,1.08,GOOD
1790984860015,264,1977.0,-79.22339102139641,32000.0,85.1,98.0,-1.3,-0.4,1.08,GOOD
1790984860015,265,1985.0,-67.05679033645934,32000.0,85.1,98.0,-1.3,-0.4,1.08,GOOD
1790984860015,266,1982.0,-63.91042488662665,32000.0,85.1,98.0,-1.3,-0.4,1.08,GOOD
1790984860015,267,1978.0,-62.15371666767799,32000.0,85.1,98.0,-1.3,-0.4,1.08,GOOD
1790984860015,268,1943.0,-63.021239877763726,32000.0,85.1,98.0,-1.3,-0.4,1.08,GOOD
1790984860015,269,1997.0,-71.28863899863325,32000.0,85.1,98.0,-1.3,-0.4,1.08,GOOD
1790984860015,270,1991.0,-80.01560328259862,32000.0,85.1,98.0,-1.3,-0.4,1.08,GOOD
1790984860015,271,1899.0,-81.09086250364865,32000.0,85.1,98.0,-1.3,-0.4,1.08,GOOD
1790984860015,272,2000.0,-78.97031334045558,32000.0,85.1,98.0,-1.3,-0.4,1.08,GOOD
1790984860015,273,1957.0,-77.6078625396852,32000.0,85.1,98.0,-1.3,-0.4,1.08,GOOD
1790984860015,274,1955.0,-77.64370202587041,32000.0,85.1,98.0,-1.3,-0.4,1.08,GOOD
1790984860015,275,1966.0,-80.70580741886361,32000.0,85.1,98.0,-1.3,-0.4,1.08,GOOD
1790984860312,276,1963.0,-81.9664758665086,-47.0,85.8,98.0,-1.3,-0.3,1.09,GOOD
1790984860312,277,2054.0,-73.04000836179681,-45.0,85.8,98.0,-1.3,-0.3,1.09,GOOD
1790984860312,278,2053.0,-50.72704745668445,-41.0,85.8,98.0,-1.3,-0.3,1.09,GOOD
1790984860312,279,2068.0,-21.260860397962038,-39.0,85.8,98.0,-1.3,-0.3,1.09,GOOD
1790984860312,280,2057.0,5.057619765854891,-39.0,85.8,98.0,-1.3,-0.3,1.09,GOOD
1790984860312,281,1935.0,18.91641043420323,-34.0,85.8,98.0,-1.3,-0.3,1.09,GOOD
1790984860312,282,2009.0,11.99377321804825,-35.0,85.8,98.0,-1.3,-0.3,1.09,GOOD
1790984860312,283,1998.0,-11.520838391474513,-31.0,85.8,98.0,-1.3,-0.3,1.09,GOOD
1790984860312,284,2015.0,-35.52975280336191,-31.0,85.8,98.0,-1.3,-0.3,1.09,GOOD
1790984860312,285,1984.0,-48.59868394557355,-31.0,85.8,98.0,-1.3,-0.3,1.09,GOOD
1790984860312,286,2018.0,-47.217944849380366,-28.0,85.8,98.0,-1.3,-0.3,1.09,GOOD
1790984860312,287,1988.0,-34.60088118690457,-26.0,85.8,98.0,-1.3,-0.3,1.09,GOOD
1790984860312,288,1988.0,-23.04216277447708,-23.0,85.8,98.0,-1.3,-0.3,1.09,GOOD
1790984860312,289,1888.0,-28.343284460279428,-20.0,85.8,98.0,-1.3,-0.3,1.09,GOOD
1790984860312,290,1900.0,-55.9718875258812,-19.0,85.8,98.0,-1.3,-0.3,1.09,GOOD
1790984860312,291,1887.0,-92.69560973598331,-19.0,85.8,98.0,-1.3,-0.3,1.09,GOOD
1790984860312,292,1863.0,-120.99152382372996,-15.0,85.8,98.0,-1.3,-0.3,1.09,GOOD
1790984860312,293,2051.0,-131.17639029172244,-12.0,85.8,98.0,-1.3,-0.3,1.09,GOOD
1790984860312,294,2061.0,-112.28193716563156,-8.0,85.8,98.0,-1.3,-0.3,1.09,GOOD
1790984860312,295,2086.0,-61.31135226604472,-3.0,85.8,98.0,-1.3,-0.3,1.09,GOOD
1790984860312,296,2061.0,3.115358122164716,0.0,85.8,98.0,-1.3,-0.3,1.09,GOOD
1790984860312,297,2044.0,54.07975370982967,1.0,85.8,98.0,-1.3,-0.3,1.09,GOOD
1790984860312,298,2016.0,72.09932329209174,3.0,85.8,98.0,-1.3,-0.3,1.09,GOOD
1790984860312,299,2052.0,56.00829756469815,7.0,85.8,98.0,-1.3,-0.3,1.09,GOOD
1790984860312,300,2033.0,25.913185616283247,7.0,85.8,98.0,-1.3,-0.3,1.09,GOOD
1790984860313,301,2036.0,5.907097456325836,32000.0,85.8,98.0,-1.3,-0.3,1.09,GOOD
1790984860313,302,2026.0,4.272190110271578,32000.0,85.8,98.0,-1.3,-0.3,1.09,GOOD
1790984860313,303,2021.0,11.731694427788423,32000.0,85.8,98.0,-1.3,-0.3,1.09,GOOD
1790984860313,304,2041.0,15.12539980710455,32000.0,85.8,98.0,-1.3,-0.3,1.09,GOOD
1790984860313,305,2052.0,12.525931022643968,32000.0,85.8,98.0,-1.3,-0.3,1.09,GOOD
1790984860313,306,2054.0,12.577825357781265,32000.0,85.8,98.0,-1.3,-0.3,1.09,GOOD
1790984860313,307,2054.0,20.789502281437738,32000.0,85.8,98.0,-1.3,-0.3,1.09,GOOD
1790984860313,308,2085.0,33.791327839380656,32000.0,85.8,98.0,-1.3,-0.3,1.09,GOOD
1790984860313,309,2074.0,45.14596479994723,32000.0,85.8,98.0,-1.3,-0.3,1.09,GOOD
1790984860313,310,2085.0,51.29781449683219,32000.0,85.8,98.0,-1.3,-0.3,1.09,GOOD
1790984860313,311,2080.0,54.01949213855701,32000.0,85.8,98.0,-1.3,-0.3,1.09,GOOD
1790984860313,312,2005.0,54.31914778760083,32000.0,85.8,98.0,-1.3,-0.3,1.09,GOOD
1790984860313,313,1890.0,40.9408768986982,32000.0,85.8,98.0,-1.3,-0.3,1.09,GOOD
1790984860313,314,1977.0,3.254720822069261,32000.0,85.8,98.0,-1.3,-0.3,1.09,GOOD
1790984860313,315,1978.0,-43.20430694576773,32000.0,85.8,98.0,-1.3,-0.3,1.09,GOOD
1790984860313,316,1972.0,-71.63974911271866,32000.0,85.8,98.0,-1.3,-0.3,1.09,GOOD
1790984860313,317,2012.0,-72.8727761360642,32000.0,85.8,98.0,-1.3,-0.3,1.09,GOOD
1790984860313,318,2008.0,-52.85546213313403,32000.0,85.8,98.0,-1.3,-0.3,1.09,GOOD
1790984860313,319,2012.0,-24.606555849961527,32000.0,85.8,98.0,-1.3,-0.3,1.09,GOOD
1790984860313,320,2016.0,-3.456337776725997,32000.0,85.8,98.0,-1.3,-0.3,1.09,GOOD
1790984860313,321,2004.0,3.2383353700976216,32000.0,85.8,98.0,-1.3,-0.3,1.09,GOOD
1790984860313,322,2013.0,-0.48312421596487365,32000.0,85.8,98.0,-1.3,-0.3,1.09,GOOD
1790984860313,323,2007.0,-5.359839417313427,32000.0,85.8,98.0,-1.3,-0.3,1.09,GOOD
1790984860313,324,1989.0,-6.966655787015219,32000.0,85.8,98.0,-1.3,-0.3,1.09,GOOD
1790984860313,325,2011.0,-8.339571025914314,32000.0,85.8,98.0,-1.3,-0.3,1.09,GOOD
1790984860465,326,2093.0,-8.037112693828568,32000.0,85.8,98.0,-1.3,-0.4,1.08,GOOD
1790984860465,327,2076.0,3.5120575587228196,32000.0,85.8,98.0,-1.3,-0.4,1.08,GOOD
1790984860465,328,2092.0,28.467030097358744,32000.0,85.8,98.0,-1.3,-0.4,1.08,GOOD
1790984860465,329,2105.0,57.383053489911305,32000.0,85.8,98.0,-1.3,-0.4,1.08,GOOD
1790984860465,330,2814.0,108.1969958421896,32000.0,85.8,98.0,-1.3,-0.4,1.08,GOOD
1790984860465,331,2822.0,237.64889588325076,32000.0,85.8,98.0,-1.3,-0.4,1.08,GOOD
1790984860465,332,2839.0,449.9765478138409,32000.0,85.8,98.0,-1.3,-0.4,1.08,GOOD
1790984860465,333,2862.0,664.8963266655444,32000.0,85.8,98.0,-1.3,-0.4,1.08,GOOD
1790984860465,334,2619.0,801.6948021802252,32000.0,85.8,98.0,-1.3,-0.4,1.08,GOOD
1790984860465,335,2539.0,816.425194991606,32000.0,85.8,98.0,-1.3,-0.4,1.08,GOOD
1790984860465,336,2506.0,710.7395120348956,32000.0,85.8,98.0,-1.3,-0.4,1.08,GOOD
1790984860465,337,1628.0,512.1315419374732,32000.0,85.8,98.0,-1.3,-0.4,1.08,GOOD
1790984860465,338,1658.0,230.06979441272344,32000.0,85.8,98.0,-1.3,-0.4,1.08,GOOD
1790984860465,339,1640.0,-86.7370395935037,32000.0,85.8,98.0,-1.3,-0.4,1.08,GOOD
1790984860465,340,1600.0,-340.66967682316414,32000.0,85.8,98.0,-1.3,-0.4,1.08,GOOD
1790984860465,341,1907.0,-476.4997655358274,32000.0,85.8,98.0,-1.3,-0.4,1.08,GOOD
1790984860465,342,1916.0,-484.44257424909887,32000.0,85.8,98.0,-1.3,-0.4,1.08,GOOD
1790984860465,343,1947.0,-380.8275800702738,32000.0,85.8,98.0,-1.3,-0.4,1.08,GOOD
1790984860465,344,1920.0,-225.5605150419585,32000.0,85.8,98.0,-1.3,-0.4,1.08,GOOD
1790984860465,345,1917.0,-100.29018194315678,32000.0,85.8,98.0,-1.3,-0.4,1.08,GOOD
1790984860465,346,1909.0,-59.97047672879795,32000.0,85.8,98.0,-1.3,-0.4,1.08,GOOD
1790984860465,347,1920.0,-96.45058975660706,32000.0,85.8,98.0,-1.3,-0.4,1.08,GOOD
1790984860465,348,1960.0,-147.38911520364994,32000.0,85.8,98.0,-1.3,-0.4,1.08,GOOD
1790984860465,349,2042.0,-152.12917918020986,32000.0,85.8,98.0,-1.3,-0.4,1.08,GOOD
1790984860465,350,2022.0,-104.4113045398004,32000.0,85.8,98.0,-1.3,-0.4,1.08,GOOD
1790984860559,351,1999.0,-50.5775248111226,32000.0,85.8,98.0,-1.3,-0.3,1.08,GOOD
1790984860559,352,2046.0,-29.727528813718084,32000.0,85.8,98.0,-1.3,-0.3,1.08,GOOD
1790984860559,353,2120.0,-27.158188586446165,32000.0,85.8,98.0,-1.3,-0.3,1.08,GOOD
1790984860559,354,2094.0,-6.551660261047597,32000.0,85.8,98.0,-1.3,-0.3,1.08,GOOD
1790984860559,355,2056.0,30.136374969735325,32000.0,85.8,98.0,-1.3,-0.3,1.08,GOOD
1790984860559,356,1970.0,44.797752126247794,32000.0,85.8,98.0,-1.3,-0.3,1.08,GOOD
1790984860559,357,1984.0,16.23173251713782,32000.0,85.8,98.0,-1.3,-0.3,1.08,GOOD
1790984860559,358,1995.0,-32.03375508842553,32000.0,85.8,98.0,-1.3,-0.3,1.08,GOOD
1790984860559,359,1965.0,-63.69356961953687,32000.0,85.8,98.0,-1.3,-0.3,1.08,GOOD
1790984860559,360,1964.0,-72.52124590651768,32000.0,85.8,98.0,-1.3,-0.3,1.08,GOOD
1790984860559,361,1970.0,-75.7785647553946,32000.0,85.8,98.0,-1.3,-0.3,1.08,GOOD
1790984860559,362,2012.0,-80.51482892683265,32000.0,85.8,98.0,-1.3,-0.3,1.08,GOOD
1790984860559,363,2046.0,-75.11647641601462,32000.0,85.8,98.0,-1.3,-0.3,1.08,GOOD
1790984860559,364,2192.0,-44.75894603997289,32000.0,85.8,98.0,-1.3,-0.3,1.08,GOOD
1790984860559,365,2168.0,11.720327616846866,32000.0,85.8,98.0,-1.3,-0.3,1.08,GOOD
1790984860559,366,2165.0,73.40412626291632,32000.0,85.8,98.0,-1.3,-0.3,1.08,GOOD
1790984860559,367,2194.0,116.00905594660041,32000.0,85.8,98.0,-1.3,-0.3,1.08,GOOD
1790984860559,368,1934.0,126.98926694259134,32000.0,85.8,98.0,-1.3,-0.3,1.08,GOOD
1790984860559,369,1887.0,91.32090321177007,32000.0,85.8,98.0,-1.3,-0.3,1.08,GOOD
1790984860559,370,1817.0,4.300959483055076,32000.0,85.8,98.0,-1.3,-0.3,1.08,GOOD
1790984860559,371,1795.0,-107.7166151211242,32000.0,85.8,98.0,-1.3,-0.3,1.08,GOOD
1790984860559,372,2388.0,-182.57848892191907,32000.0,85.8,98.0,-1.3,-0.3,1.08,GOOD
1790984860559,373,2424.0,-139.27014778013444,32000.0,85.8,98.0,-1.3,-0.3,1.08,GOOD
1790984860559,374,2428.0,32.534865195223055,32000.0,85.8,98.0,-1.3,-0.3,1.08,GOOD
1790984860559,375,2319.0,236.38874174181402,32000.0,85.8,98.0,-1.3,-0.3,1.08,GOOD
1790984860561,376,2322.0,367.17589051704584,32000.0,85.8,98.0,-1.3,-0.3,1.08,GOOD
1790984860561,377,2316.0,391.08422316127735,32000.0,85.8,98.0,-1.3,-0.3,1.08,GOOD
1790984860561,378,2334.0,338.7308459847676,32000.0,85.8,98.0,-1.3,-0.3,1.08,GOOD
1790984860561,379,2363.0,267.13147996862153,32000.0,85.8,98.0,-1.3,-0.3,1.08,GOOD
1790984860561,380,2378.0,226.94455542610677,32000.0,85.8,98.0,-1.3,-0.3,1.08,GOOD
1790984860561,381,2359.0,235.68720400564553,32000.0,85.8,98.0,-1.3,-0.3,1.08,GOOD
1790984860561,382,2368.0,269.57954343294386,32000.0,85.8,98.0,-1.3,-0.3,1.08,GOOD
1790984860561,383,2379.0,291.42750865016933,32000.0,85.8,98.0,-1.3,-0.3,1.08,GOOD
1790984860561,384,2377.0,286.8548559198949,32000.0,85.8,98.0,-1.3,-0.3,1.08,GOOD
1790984860561,385,2346.0,269.41349307342136,32000.0,85.8,98.0,-1.3,-0.3,1.08,GOOD
1790984860561,386,2307.0,255.611988303438,32000.0,85.8,98.0,-1.3,-0.3,1.08,GOOD
1790984860561,387,2153.0,238.50601447834907,32000.0,85.8,98.0,-1.3,-0.3,1.08,GOOD
1790984860561,388,2167.0,194.0830949790671,32000.0,85.8,98.0,-1.3,-0.3,1.08,GOOD
1790984860561,389,2167.0,121.38534705387792,32000.0,85.8,98.0,-1.3,-0.3,1.08,GOOD
1790984860561,390,2165.0,53.544760870135484,32000.0,85.8,98.0,-1.3,-0.3,1.08,GOOD
1790984860561,391,2051.0,16.20030981706831,32000.0,85.8,98.0,-1.3,-0.3,1.08,GOOD
1790984860561,392,2089.0,0.799364294257848,32000.0,85.8,98.0,-1.3,-0.3,1.08,GOOD
1790984860561,393,2093.0,-12.125381973293475,32000.0,85.8,98.0,-1.3,-0.3,1.08,GOOD
1790984860561,394,2063.0,-29.651470692314646,32000.0,85.8,98.0,-1.3,-0.3,1.08,GOOD
1790984860561,395,1971.0,-52.27957326945179,32000.0,85.8,98.0,-1.3,-0.3,1.08,GOOD
1790984860561,396,1988.0,-78.68724591003019,32000.0,85.8,98.0,-1.3,-0.3,1.08,GOOD
1790984860561,397,1963.0,-103.31119085692872,32000.0,85.8,98.0,-1.3,-0.3,1.08,GOOD
1790984860561,398,1859.0,-128.3205961685537,32000.0,85.8,98.0,-1.3,-0.3,1.08,GOOD
1790984860561,399,1872.0,-165.862872675832,32000.0,85.8,98.0,-1.3,-0.3,1.08,GOOD
1790984860561,400,1954.0,-208.5944193483777,32000.0,85.8,98.0,-1.3,-0.3,1.08,GOOD
1790984860793,401,1948.0,-226.2702254985546,32000.0,85.8,98.0,-1.3,-0.3,1.08,GOOD
1790984860793,402,1797.0,-213.50005696321844,32000.0,85.8,98.0,-1.3,-0.3,1.08,GOOD
1790984860793,403,1813.0,-204.7723115618178,32000.0,85.8,98.0,-1.3,-0.3,1.08,GOOD
1790984860793,404,1809.0,-224.53397466779398,32000.0,85.8,98.0,-1.3,-0.3,1.08,GOOD
1790984860793,405,1812.0,-259.67055435214274,32000.0,85.8,98.0,-1.3,-0.3,1.08,GOOD
1790984860793,406,1974.0,-279.52206796761936,32000.0,85.8,98.0,-1.3,-0.3,1.08,GOOD
1790984860793,407,1977.0,-258.596825497498,32000.0,85.8,98.0,-1.3,-0.3,1.08,GOOD
1790984860793,408,1994.0,-199.65774294651058,32000.0,85.8,98.0,-1.3,-0.3,1.08,GOOD
1790984860793,409,1978.0,-134.00814959134905,32000.0,85.8,98.0,-1.3,-0.3,1.08,GOOD
1790984860793,410,1935.0,-91.83370374299781,32000.0,85.8,98.0,-1.3,-0.3,1.08,GOOD
1790984860793,411,1899.0,-85.50074676176303,32000.0,85.8,98.0,-1.3,-0.3,1.08,GOOD
1790984860793,412,1929.0,-108.32958205226788,32000.0,85.8,98.0,-1.3,-0.3,1.08,GOOD
1790984860793,413,1951.0,-138.23750758892555,32000.0,85.8,98.0,-1.3,-0.3,1.08,GOOD
1790984860793,414,1959.0,-153.27094176875534,32000.0,85.8,98.0,-1.3,-0.3,1.08,GOOD
1790984860793,415,1952.0,-147.21237432244376,32000.0,85.8,98.0,-1.3,-0.3,1.08,GOOD
1790984860793,416,1948.0,-129.1013579343948,32000.0,85.8,98.0,-1.3,-0.3,1.08,GOOD
1790984860793,417,1946.0,-112.30551040336445,32000.0,85.8,98.0,-1.3,-0.3,1.08,GOOD
1790984860793,418,2014.0,-102.54674891117429,32000.0,85.8,98.0,-1.3,-0.3,1.08,GOOD
1790984860793,419,2017.0,-93.61257180187295,32000.0,85.8,98.0,-1.3,-0.3,1.08,GOOD
1790984860793,420,2007.0,-78.87013903351327,32000.0,85.8,98.0,-1.3,-0.3,1.08,GOOD
1790984860793,421,1917.0,-64.5926724172574,32000.0,85.8,98.0,-1.3,-0.3,1.08,GOOD
1790984860793,422,1935.0,-64.55602899139895,32000.0,85.8,98.0,-1.3,-0.3,1.08,GOOD
1790984860793,423,1944.0,-81.57216302492058,32000.0,85.8,98.0,-1.3,-0.3,1.08,GOOD
1790984860793,424,1951.0,-103.81654132641887,32000.0,85.8,98.0,-1.3,-0.3,1.08,GOOD
1790984860793,425,1928.0,-119.2998380459514,32000.0,85.8,98.0,-1.3,-0.3,1.08,GOOD
1790984860893,426,1915.0,-124.49064085073783,32000.0,85.8,98.0,-1.3,-0.3,1.08,GOOD
1790984860893,427,1915.0,-122.37708012740882,32000.0,85.8,98.0,-1.3,-0.3,1.08,GOOD
1790984860893,428,1985.0,-116.33223995492006,32000.0,85.8,98.0,-1.3,-0.3,1.08,GOOD
1790984860893,429,1991.0,-105.66726105118182,32000.0,85.8,98.0,-1.3,-0.3,1.08,GOOD
1790984860893,430,1984.0,-89.97706448556957,32000.0,85.8,98.0,-1.3,-0.3,1.08,GOOD
1790984860893,431,1971.0,-72.69573451023948,32000.0,85.8,98.0,-1.3,-0.3,1.08,GOOD
1790984860893,432,1833.0,-63.44189677190576,32000.0,85.8,98.0,-1.3,-0.3,1.08,GOOD
1790984860893,433,1832.0,-78.55764368851298,32000.0,85.8,98.0,-1.3,-0.3,1.08,GOOD
1790984860893,434,1785.0,-123.96571938253447,32000.0,85.8,98.0,-1.3,-0.3,1.08,GOOD
1790984860893,435,1778.0,-184.1244545779644,32000.0,85.8,98.0,-1.3,-0.3,1.08,GOOD
1790984860893,436,2033.0,-224.57140431238,32000.0,85.8,98.0,-1.3,-0.3,1.08,GOOD
1790984860893,437,2054.0,-204.76515460586145,32000.0,85.8,98.0,-1.3,-0.3,1.08,GOOD
1790984860893,438,2072.0,-121.59931353225898,32000.0,85.8,98.0,-1.3,-0.3,1.08,GOOD
1790984860893,439,2002.0,-23.959852499345438,32000.0,85.8,98.0,-1.3,-0.3,1.08,GOOD
1790984860893,440,1991.0,35.54525628599819,32000.0,85.8,98.0,-1.3,-0.3,1.08,GOOD
1790984860893,441,1998.0,42.274963248724205,32000.0,85.8,98.0,-1.3,-0.3,1.08,GOOD
1790984860893,442,2005.0,16.57645394037476,32000.0,85.8,98.0,-1.3,-0.3,1.08,GOOD
1790984860893,443,2011.0,-13.153871643985998,32000.0,85.8,98.0,-1.3,-0.3,1.08,GOOD
1790984860893,444,2008.0,-29.322318735172097,32000.0,85.8,98.0,-1.3,-0.3,1.08,GOOD
1790984860893,445,1980.0,-29.19418493441389,32000.0,85.8,98.0,-1.3,-0.3,1.08,GOOD
1790984860893,446,2005.0,-21.099018907897143,32000.0,85.8,98.0,-1.3,-0.3,1.08,GOOD
1790984860893,447,1974.0,-15.511864024424817,32000.0,85.8,98.0,-1.3,-0.3,1.08,GOOD
1790984860893,448,2035.0,-16.580803170544243,32000.0,85.8,98.0,-1.3,-0.3,1.08,GOOD
1790984860893,449,2023.0,-17.91744192071421,32000.0,85.8,98.0,-1.3,-0.3,1.08,GOOD
1790984860893,450,2031.0,-11.00398710461121,32000.0,85.8,98.0,-1.3,-0.3,1.08,GOOD
1790984861133,451,2006.0,2.225127678006696,32000.0,86.4,98.0,-1.4,-0.3,1.08,GOOD
1790984861133,452,2023.0,12.042974380901024,32000.0,86.4,98.0,-1.4,-0.3,1.08,GOOD
1790984861133,453,2019.0,12.739706443793485,32000.0,86.4,98.0,-1.4,-0.3,1.08,GOOD
1790984861133,454,2001.0,6.554205097780219,32000.0,86.4,98.0,-1.4,-0.3,1.08,GOOD
1790984861133,455,2000.0,-1.3021669820920554,32000.0,86.4,98.0,-1.4,-0.3,1.08,GOOD
1790984861133,456,1991.0,-7.114961386940283,32000.0,86.4,98.0,-1.4,-0.3,1.08,GOOD
1790984861133,457,1946.0,-12.751744527359964,32000.0,86.4,98.0,-1.4,-0.3,1.08,GOOD
1790984861133,458,1993.0,-22.89889454073564,32000.0,86.4,98.0,-1.4,-0.3,1.08,GOOD
1790984861133,459,2000.0,-33.440645480241166,32000.0,86.4,98.0,-1.4,-0.3,1.08,GOOD
1790984861133,460,1999.0,-34.72642741458735,32000.0,86.4,98.0,-1.4,-0.3,1.08,GOOD
1790984861133,461,2038.0,-24.079888287968686,32000.0,86.4,98.0,-1.4,-0.3,1.08,GOOD
1790984861133,462,2027.0,-5.796027941562051,32000.0,86.4,98.0,-1.4,-0.3,1.08,GOOD
1790984861133,463,2030.0,12.152832557729594,32000.0,86.4,98.0,-1.4,-0.3,1.08,GOOD
1790984861133,464,2064.0,23.92710498423584,32000.0,86.4,98.0,-1.4,-0.3,1.08,GOOD
1790984861133,465,2059.0,32.02869750151199,32000.0,86.4,98.0,-1.4,-0.3,1.08,GOOD
1790984861133,466,2039.0,39.63467259735974,32000.0,86.4,98.0,-1.4,-0.3,1.08,GOOD
1790984861133,467,2053.0,44.26716812533513,32000.0,86.4,98.0,-1.4,-0.3,1.08,GOOD
1790984861133,468,1991.0,42.022019091372954,32000.0,86.4,98.0,-1.4,-0.3,1.08,GOOD
1790984861133,469,2100.0,34.045948461297385,32000.0,86.4,98.0,-1.4,-0.3,1.08,GOOD
1790984861133,470,2070.0,30.68726569368565,32000.0,86.4,98.0,-1.4,-0.3,1.08,GOOD
1790984861133,471,2016.0,36.54944733619827,32000.0,86.4,98.0,-1.4,-0.3,1.08,GOOD
1790984861133,472,2012.0,40.05516890166054,32000.0,86.4,98.0,-1.4,-0.3,1.08,GOOD
1790984861133,473,2023.0,33.201109597198375,32000.0,86.4,98.0,-1.4,-0.3,1.08,GOOD
1790984861133,474,2005.0,20.58132406125638,32000.0,86.4,98.0,-1.4,-0.3,1.08,GOOD
1790984861133,475,1944.0,4.805890292864136,32000.0,86.4,98.0,-1.4,-0.3,1.08,GOOD
1790984861135,476,1894.0,-18.812075587731634,32000.0,86.4,98.0,-1.4,-0.3,1.08,GOOD
1790984861135,477,1882.0,-51.590440099974124,32000.0,86.4,98.0,-1.4,-0.3,1.08,GOOD
1790984861135,478,1823.0,-87.85515496028131,32000.0,86.4,98.0,-1.4,-0.3,1.08,GOOD
1790984861135,479,1776.0,-125.44495174005286,32000.0,86.4,98.0,-1.4,-0.3,1.08,GOOD
1790984861135,480,1773.0,-165.79836517641718,32000.0,86.4,98.0,-1.4,-0.3,1.08,GOOD
1790984861135,481,1753.0,-203.280719183876,32000.0,86.4,98.0,-1.4,-0.3,1.08,GOOD
1790984861135,482,2050.0,-216.5770548169858,32000.0,86.4,98.0,-1.4,-0.3,1.08,GOOD
1790984861135,483,2043.0,-176.7031172213168,32000.0,86.4,98.0,-1.4,-0.3,1.08,GOOD
1790984861135,484,2034.0,-88.18330233236719,32000.0,86.4,98.0,-1.4,-0.3,1.08,GOOD
1790984861135,485,2007.0,2.296487010596506,32000.0,86.4,98.0,-1.4,-0.3,1.08,GOOD
1790984861135,486,2021.0,56.457610011468276,32000.0,86.4,98.0,-1.4,-0.3,1.08,GOOD
1790984861135,487,2036.0,70.97340538930102,32000.0,86.4,98.0,-1.4,-0.3,1.08,GOOD
1790984861135,488,2029.0,60.83801866211172,32000.0,86.4,98.0,-1.4,-0.3,1.08,GOOD
1790984861135,489,2030.0,42.24995798656006,32000.0,86.4,98.0,-1.4,-0.3,1.08,GOOD
1790984861135,490,2286.0,39.04456338314303,32000.0,86.4,98.0,-1.4,-0.3,1.08,GOOD
1790984861135,491,2301.0,82.45892219652454,32000.0,86.4,98.0,-1.4,-0.3,1.08,GOOD
1790984861135,492,2280.0,170.05418618252693,32000.0,86.4,98.0,-1.4,-0.3,1.08,GOOD
1790984861135,493,2913.0,280.3971270704533,32000.0,86.4,98.0,-1.4,-0.3,1.08,GOOD
1790984861135,494,2910.0,431.37233278472405,32000.0,86.4,98.0,-1.4,-0.3,1.08,GOOD
1790984861135,495,2928.0,625.790972292893,32000.0,86.4,98.0,-1.4,-0.3,1.08,GOOD
1790984861135,496,2928.0,803.6759691673037,32000.0,86.4,98.0,-1.4,-0.3,1.08,GOOD
1790984861135,497,2100.0,878.3065135941171,32000.0,86.4,98.0,-1.4,-0.3,1.08,GOOD
1790984861135,498,2066.0,767.4167741882379,32000.0,86.4,98.0,-1.4,-0.3,1.08,GOOD
1790984861135,499,1998.0,482.0511415577541,32000.0,86.4,98.0,-1.4,-0.3,1.08,GOOD
1790984861135,500,1990.0,154.36588201008647,32000.0,86.4,98.0,-1.4,-0.3,1.08,GOOD
1790984861136,501,2011.0,-83.26836711252103,32000.0,86.4,98.0,-1.4,-0.3,1.08,GOOD
1790984861136,502,2021.0,-177.7894088837395,32000.0,86.4,98.0,-1.4,-0.3,1.08,GOOD
1790984861136,503,2013.0,-152.01298868835383,32000.0,86.4,98.0,-1.4,-0.3,1.08,GOOD
1790984861136,504,2000.0,-77.7056480376976,32000.0,86.4,98.0,-1.4,-0.3,1.08,GOOD
1790984861136,505,1993.0,-27.269789761271454,32000.0,86.4,98.0,-1.4,-0.3,1.08,GOOD
1790984861136,506,2014.0,-27.09967345041377,32000.0,86.4,98.0,-1.4,-0.3,1.08,GOOD
1790984861136,507,2014.0,-51.50496168442894,32000.0,86.4,98.0,-1.4,-0.3,1.08,GOOD
1790984861136,508,2005.0,-63.44927389606613,32000.0,86.4,98.0,-1.4,-0.3,1.08,GOOD
1790984861136,509,1993.0,-55.65564575799162,32000.0,86.4,98.0,-1.4,-0.3,1.08,GOOD
1790984861136,510,1974.0,-48.93058123167976,32000.0,86.4,98.0,-1.4,-0.3,1.08,GOOD
1790984861136,511,1987.0,-59.176381048298865,32000.0,86.4,98.0,-1.4,-0.3,1.08,GOOD
1790984861136,512,2010.0,-75.82529790739869,32000.0,86.4,98.0,-1.4,-0.3,1.08,GOOD
1790984861136,513,2015.0,-77.01458567988158,32000.0,86.4,98.0,-1.4,-0.3,1.08,GOOD
1790984861136,514,2000.0,-59.9178334997006,32000.0,86.4,98.0,-1.4,-0.3,1.08,GOOD
1790984861136,515,2043.0,-42.024437278069946,32000.0,86.4,98.0,-1.4,-0.3,1.08,GOOD
1790984861136,516,2035.0,-34.779646600570985,32000.0,86.4,98.0,-1.4,-0.3,1.08,GOOD
1790984861136,517,2058.0,-31.79241963491411,32000.0,86.4,98.0,-1.4,-0.3,1.08,GOOD
1790984861136,518,2106.0,-19.763275706795078,32000.0,86.4,98.0,-1.4,-0.3,1.08,GOOD
1790984861136,519,2080.0,4.933213716776459,32000.0,86.4,98.0,-1.4,-0.3,1.08,GOOD
1790984861136,520,2076.0,28.22469953972498,32000.0,86.4,98.0,-1.4,-0.3,1.08,GOOD
1790984861136,521,2073.0,34.68878940218292,32000.0,86.4,98.0,-1.4,-0.3,1.08,GOOD
1790984861136,522,2105.0,28.402827597149212,32000.0,86.4,98.0,-1.4,-0.3,1.08,GOOD
1790984861136,523,2130.0,26.933481755405804,32000.0,86.4,98.0,-1.4,-0.3,1.08,GOOD
1790984861136,524,2104.0,38.091108458955155,32000.0,86.4,98.0,-1.4,-0.3,1.08,GOOD
1790984861136,525,2071.0,49.93215855169245,32000.0,86.4,98.0,-1.4,-0.3,1.08,GOOD
1790984861324,526,1997.0,44.70526488361556,32000.0,86.4,98.0,-1.3,-0.2,1.08,GOOD
1790984861324,527,2029.0,18.78963579989844,32000.0,86.4,98.0,-1.3,-0.2,1.08,GOOD
1790984861324,528,1932.0,-16.587880181560568,32000.0,86.4,98.0,-1.3,-0.2,1.08,GOOD
1790984861324,529,1928.0,-53.69728327655585,32000.0,86.4,98.0,-1.3,-0.2,1.08,GOOD
1790984861324,530,2157.0,-81.83715013426999,32000.0,86.4,98.0,-1.3,-0.2,1.08,GOOD
1790984861324,531,2148.0,-74.00391692572339,32000.0,86.4,98.0,-1.3,-0.2,1.08,GOOD
1790984861324,532,2153.0,-21.75494338759609,32000.0,86.4,98.0,-1.3,-0.2,1.08,GOOD
1790984861324,533,2159.0,46.50562351198843,32000.0,86.4,98.0,-1.3,-0.2,1.08,GOOD
1790984861324,534,2220.0,101.8334339938782,32000.0,86.4,98.0,-1.3,-0.2,1.08,GOOD
1790984861324,535,2170.0,133.84555962107618,32000.0,86.4,98.0,-1.3,-0.2,1.08,GOOD
1790984861324,536,2196.0,140.8470224525306,32000.0,86.4,98.0,-1.3,-0.2,1.08,GOOD
1790984861324,537,2373.0,137.51815647635038,32000.0,86.4,98.0,-1.3,-0.2,1.08,GOOD
1790984861324,538,2261.0,151.89158098337128,32000.0,86.4,98.0,-1.3,-0.2,1.08,GOOD
1790984861324,539,2358.0,188.70725189977767,32000.0,86.4,98.0,-1.3,-0.2,1.08,GOOD
1790984861324,540,2324.0,228.11037273461574,32000.0,86.4,98.0,-1.3,-0.2,1.08,GOOD
1790984861324,541,2363.0,254.35157858753823,32000.0,86.4,98.0,-1.3,-0.2,1.08,GOOD
1790984861324,542,2375.0,264.6911979162884,32000.0,86.4,98.0,-1.3,-0.2,1.08,GOOD
1790984861324,543,2386.0,267.34246122286015,32000.0,86.4,98.0,-1.3,-0.2,1.08,GOOD
1790984861324,544,2299.0,268.1216379243949,32000.0,86.4,98.0,-1.3,-0.2,1.08,GOOD
1790984861324,545,2284.0,259.7917807523014,32000.0,86.4,98.0,-1.3,-0.2,1.08,GOOD
1790984861324,546,2251.0,234.0861444999374,32000.0,86.4,98.0,-1.3,-0.2,1.08,GOOD
1790984861324,547,2199.0,192.64419868539915,32000.0,86.4,98.0,-1.3,-0.2,1.08,GOOD
1790984861324,548,2079.0,139.35315438389404,32000.0,86.4,98.0,-1.3,-0.2,1.08,GOOD
1790984861324,549,2065.0,76.54822531987504,32000.0,86.4,98.0,-1.3,-0.2,1.08,GOOD
1790984861324,550,2029.0,12.811873587708366,32000.0,86.4,98.0,-1.3,-0.2,1.08,GOOD
1790984861556,551,2027.0,-40.349463416443136,32000.0,86.4,98.0,-1.3,-0.3,1.08,GOOD
1790984861556,552,2068.0,-76.18750999336181,32000.0,86.4,98.0,-1.3,-0.3,1.08,GOOD
1790984861556,553,2101.0,-88.82777839367327,32000.0,86.4,98.0,-1.3,-0.3,1.08,GOOD
1790984861556,554,2075.0,-76.2648186520202,32000.0,86.4,98.0,-1.3,-0.3,1.08,GOOD
1790984861556,555,1971.0,-54.019871779409826,32000.0,86.4,98.0,-1.3,-0.3,1.08,GOOD
1790984861556,556,1985.0,-49.0876489799872,32000.0,86.4,98.0,-1.3,-0.3,1.08,GOOD
1790984861556,557,1980.0,-71.7945960689342,32000.0,86.4,98.0,-1.3,-0.3,1.08,GOOD
1790984861556,558,1996.0,-107.04785119937624,32000.0,86.4,98.0,-1.3,-0.3,1.08,GOOD
1790984861556,559,1964.0,-134.1482983283702,32000.0,86.4,98.0,-1.3,-0.3,1.08,GOOD
1790984861556,560,1944.0,-144.75845463539235,32000.0,86.4,98.0,-1.3,-0.3,1.08,GOOD
1790984861556,561,1953.0,-144.206023574626,32000.0,86.4,98.0,-1.3,-0.3,1.08,GOOD
1790984861556,562,1900.0,-144.2243091219874,32000.0,86.4,98.0,-1.3,-0.3,1.08,GOOD
1790984861556,563,1912.0,-155.06580595650456,32000.0,86.4,98.0,-1.3,-0.3,1.08,GOOD
1790984861556,564,1886.0,-175.55458690051296,32000.0,86.4,98.0,-1.3,-0.3,1.08,GOOD
1790984861556,565,1876.0,-194.41351219981132,32000.0,86.4,98.0,-1.3,-0.3,1.08,GOOD
1790984861556,566,1884.0,-203.96879346285306,32000.0,86.4,98.0,-1.3,-0.3,1.08,GOOD
1790984861556,567,1885.0,-205.55991129719712,32000.0,86.4,98.0,-1.3,-0.3,1.08,GOOD
1790984861556,568,1880.0,-204.99900949727208,32000.0,86.4,98.0,-1.3,-0.3,1.08,GOOD
1790984861556,569,1871.0,-205.6197883801754,32000.0,86.4,98.0,-1.3,-0.3,1.08,GOOD
1790984861556,570,1915.0,-203.57829389139,32000.0,86.4,98.0,-1.3,-0.3,1.08,GOOD
1790984861556,571,1920.0,-192.25177932256696,32000.0,86.4,98.0,-1.3,-0.3,1.08,GOOD
1790984861556,572,1923.0,-173.3775554302822,32000.0,86.4,98.0,-1.3,-0.3,1.08,GOOD
1790984861556,573,1865.0,-159.15308130166034,32000.0,86.4,98.0,-1.3,-0.3,1.08,GOOD
1790984861556,574,1874.0,-159.44100470585335,32000.0,86.4,98.0,-1.3,-0.3,1.08,GOOD
1790984861556,575,1857.0,-170.68984964831634,32000.0,86.4,98.0,-1.3,-0.3,1.08,GOOD
1790984861557,576,1871.0,-182.51348723764934,32000.0,86.4,98.0,-1.3,-0.3,1.08,GOOD
1790984861557,577,1874.0,-189.62021397605469,32000.0,86.4,98.0,-1.3,-0.3,1.08,GOOD
1790984861557,578,1893.0,-191.11687130684118,32000.0,86.4,98.0,-1.3,-0.3,1.08,GOOD
1790984861557,579,1898.0,-185.0538116014132,32000.0,86.4,98.0,-1.3,-0.3,1.08,GOOD
1790984861557,580,1893.0,-170.63757141683513,32000.0,86.4,98.0,-1.3,-0.3,1.08,GOOD
1790984861557,581,1954.0,-150.95965977604334,32000.0,86.4,98.0,-1.3,-0.3,1.08,GOOD
1790984861557,582,1977.0,-128.60547090844685,32000.0,86.4,98.0,-1.3,-0.3,1.08,GOOD
1790984861557,583,1969.0,-105.36568177752542,32000.0,86.4,98.0,-1.3,-0.3,1.08,GOOD
1790984861557,584,1969.0,-84.95247081860073,32000.0,86.4,98.0,-1.3,-0.3,1.08,GOOD
1790984861557,585,1928.0,-71.11759150627745,32000.0,86.4,98.0,-1.3,-0.3,1.08,GOOD
1790984861557,586,1932.0,-67.6399259489319,32000.0,86.4,98.0,-1.3,-0.3,1.08,GOOD
1790984861557,587,1936.0,-75.96601803893574,32000.0,86.4,98.0,-1.3,-0.3,1.08,GOOD
1790984861557,588,1940.0,-90.59786710848115,32000.0,86.4,98.0,-1.3,-0.3,1.08,GOOD
1790984861557,589,1981.0,-100.00337733995539,32000.0,86.4,98.0,-1.3,-0.3,1.08,GOOD
1790984861557,590,1958.0,-94.2800478055021,32000.0,86.4,98.0,-1.3,-0.3,1.08,GOOD
1790984861557,591,1956.0,-76.60522838217068,32000.0,86.4,98.0,-1.3,-0.3,1.08,GOOD
1790984861557,592,1949.0,-61.42643402615822,32000.0,86.4,98.0,-1.3,-0.3,1.08,GOOD
1790984861557,593,2016.0,-56.03495005762486,32000.0,86.4,98.0,-1.3,-0.3,1.08,GOOD
1790984861557,594,2015.0,-51.97121744782006,32000.0,86.4,98.0,-1.3,-0.3,1.08,GOOD
1790984861557,595,2004.0,-39.851577279585804,32000.0,86.4,98.0,-1.3,-0.3,1.08,GOOD
1790984861557,596,1989.0,-23.287285688600367,32000.0,86.4,98.0,-1.3,-0.3,1.08,GOOD
1790984861557,597,1987.0,-12.70963309960344,32000.0,86.4,98.0,-1.3,-0.3,1.08,GOOD
1790984861557,598,1996.0,-13.38489665898452,32000.0,86.4,98.0,-1.3,-0.3,1.08,GOOD
1790984861557,599,1992.0,-21.684059334680136,32000.0,86.4,98.0,-1.3,-0.3,1.08,GOOD
1790984861557,600,1878.0,-34.058182853351944,32000.0,86.4,98.0,-1.3,-0.3,1.08,GOOD
1790984861688,601,1860.0,-55.460795334603134,32000.0,87.1,98.0,-1.3,-0.2,1.08,GOOD
1790984861688,602,1896.0,-86.75888500370904,32000.0,87.1,98.0,-1.3,-0.2,1.08,GOOD
1790984861688,603,1915.0,-114.98674403175548,32000.0,87.1,98.0,-1.3,-0.2,1.08,GOOD
1790984861688,604,2027.0,-123.38746475699244,32000.0,87.1,98.0,-1.3,-0.2,1.08,GOOD
1790984861688,605,2018.0,-101.2181192307004,32000.0,87.1,98.0,-1.3,-0.2,1.08,GOOD
1790984861688,606,2021.0,-53.66816475287043,32000.0,87.1,98.0,-1.3,-0.2,1.08,GOOD
1790984861688,607,2028.0,-2.452035614742841,32000.0,87.1,98.0,-1.3,-0.2,1.08,GOOD
1790984861688,608,2025.0,31.209880634184884,32000.0,87.1,98.0,-1.3,-0.2,1.08,GOOD
1790984861688,609,2010.0,38.547363492328714,32000.0,87.1,98.0,-1.3,-0.2,1.08,GOOD
1790984861688,610,1920.0,21.855734520018366,32000.0,87.1,98.0,-1.3,-0.2,1.08,GOOD
1790984861688,611,2033.0,-5.859417168301555,32000.0,87.1,98.0,-1.3,-0.2,1.08,GOOD
1790984861688,612,2035.0,-21.259985642308767,32000.0,87.1,98.0,-1.3,-0.2,1.08,GOOD
1790984861688,613,2041.0,-12.22487263576908,32000.0,87.1,98.0,-1.3,-0.2,1.08,GOOD
1790984861688,614,2040.0,8.550367385215702,32000.0,87.1,98.0,-1.3,-0.2,1.08,GOOD
1790984861688,615,2055.0,26.086618499328587,32000.0,87.1,98.0,-1.3,-0.2,1.08,GOOD
1790984861688,616,2073.0,39.857682664268694,32000.0,87.1,98.0,-1.3,-0.2,1.08,GOOD
1790984861688,617,2048.0,52.829745707032316,32000.0,87.1,98.0,-1.3,-0.2,1.08,GOOD
1790984861688,618,1981.0,57.21282271526791,32000.0,87.1,98.0,-1.3,-0.2,1.08,GOOD
1790984861688,619,1960.0,40.81681540983125,32000.0,87.1,98.0,-1.3,-0.2,1.08,GOOD
1790984861688,620,1944.0,5.961748248068674,32000.0,87.1,98.0,-1.3,-0.2,1.08,GOOD
1790984861688,621,1887.0,-32.58873259049967,32000.0,87.1,98.0,-1.3,-0.2,1.08,GOOD
1790984861688,622,1776.0,-70.36645230390766,32000.0,87.1,98.0,-1.3,-0.2,1.08,GOOD
1790984861688,623,1887.0,-111.48917728877005,32000.0,87.1,98.0,-1.3,-0.2,1.08,GOOD
1790984861688,624,1880.0,-144.9482015307587,32000.0,87.1,98.0,-1.3,-0.2,1.08,GOOD
1790984861688,625,1981.0,-150.56499203405616,32000.0,87.1,98.0,-1.3,-0.2,1.08,GOOD
1790984861689,626,1975.0,-121.73179913029965,32000.0,87.1,98.0,-1.3,-0.2,1.08,GOOD
1790984861689,627,1991.0,-71.11443250945473,32000.0,87.1,98.0,-1.3,-0.2,1.08,GOOD
1790984861689,628,1987.0,-21.93478707267821,32000.0,87.1,98.0,-1.3,-0.2,1.08,GOOD
1790984861689,629,2003.0,8.502054115747342,32000.0,87.1,98.0,-1.3,-0.2,1.08,GOOD
1790984861689,630,1888.0,13.429305367739996,32000.0,87.1,98.0,-1.3,-0.2,1.08,GOOD
1790984861689,631,1996.0,-4.298973023110542,32000.0,87.1,98.0,-1.3,-0.2,1.08,GOOD
1790984861689,632,1989.0,-25.08549046514407,32000.0,87.1,98.0,-1.3,-0.2,1.08,GOOD
1790984861689,633,1992.0,-28.58686687581753,32000.0,87.1,98.0,-1.3,-0.2,1.08,GOOD
1790984861689,634,1964.0,-17.64413012023863,32000.0,87.1,98.0,-1.3,-0.2,1.08,GOOD
1790984861689,635,1977.0,-7.216876753658053,32000.0,87.1,98.0,-1.3,-0.2,1.08,GOOD
1790984861689,636,2010.0,-2.317137995210936,32000.0,87.1,98.0,-1.3,-0.2,1.08,GOOD
1790984861689,637,2130.0,7.396300796377943,32000.0,87.1,98.0,-1.3,-0.2,1.08,GOOD
1790984861689,638,2137.0,35.908873152789745,32000.0,87.1,98.0,-1.3,-0.2,1.08,GOOD
1790984861689,639,2153.0,81.80124036555692,32000.0,87.1,98.0,-1.3,-0.2,1.08,GOOD
1790984861689,640,2803.0,154.2140649326274,32000.0,87.1,98.0,-1.3,-0.2,1.08,GOOD
1790984861689,641,2809.0,296.01899691974126,32000.0,87.1,98.0,-1.3,-0.2,1.08,GOOD
1790984861689,642,2837.0,505.823096142184,32000.0,87.1,98.0,-1.3,-0.2,1.08,GOOD
1790984861689,643,2862.0,706.7583667426538,32000.0,87.1,98.0,-1.3,-0.2,1.08,GOOD
1790984861689,644,2115.0,806.0222201918399,32000.0,87.1,98.0,-1.3,-0.2,1.08,GOOD
1790984861689,645,2148.0,729.5230737634886,32000.0,87.1,98.0,-1.3,-0.2,1.08,GOOD
1790984861689,646,2073.0,492.3209559701531,32000.0,87.1,98.0,-1.3,-0.2,1.08,GOOD
1790984861689,647,2038.0,212.1410679173168,32000.0,87.1,98.0,-1.3,-0.2,1.08,GOOD
1790984861689,648,1903.0,-4.14573962219403,32000.0,87.1,98.0,-1.3,-0.2,1.08,GOOD
1790984861689,649,2031.0,-116.15398881667754,32000.0,87.1,98.0,-1.3,-0.2,1.08,GOOD
1790984861689,650,2004.0,-127.52937680273659,32000.0,87.1,98.0,-1.3,-0.2,1.08,GOOD
1790984861764,651,1985.0,-81.6060822496083,32000.0,87.1,98.0,-1.2,-0.2,1.08,GOOD
1790984861764,652,1916.0,-45.45614348569836,32000.0,87.1,98.0,-1.2,-0.2,1.08,GOOD
1790984861764,653,1955.0,-53.72358709912414,32000.0,87.1,98.0,-1.2,-0.2,1.08,GOOD
1790984861764,654,1973.0,-82.54089876795706,32000.0,87.1,98.0,-1.2,-0.2,1.08,GOOD
1790984861764,655,1983.0,-92.88843518850422,32000.0,87.1,98.0,-1.2,-0.2,1.08,GOOD
1790984861764,656,1935.0,-81.80221267031632,32000.0,87.1,98.0,-1.2,-0.2,1.08,GOOD
1790984861764,657,1953.0,-75.28704576196273,32000.0,87.1,98.0,-1.2,-0.2,1.08,GOOD
1790984861764,658,1970.0,-83.68409047575801,32000.0,87.1,98.0,-1.2,-0.2,1.08,GOOD
1790984861764,659,2027.0,-87.77641241010807,32000.0,87.1,98.0,-1.2,-0.2,1.08,GOOD
1790984861764,660,2014.0,-69.4528834852701,32000.0,87.1,98.0,-1.2,-0.2,1.08,GOOD
1790984861764,661,1961.0,-40.58444745283388,32000.0,87.1,98.0,-1.2,-0.2,1.08,GOOD
1790984861764,662,2019.0,-27.13212077118894,32000.0,87.1,98.0,-1.2,-0.2,1.08,GOOD
1790984861764,663,2034.0,-30.78034757216386,32000.0,87.1,98.0,-1.2,-0.2,1.08,GOOD
1790984861764,664,2045.0,-30.71111684668147,32000.0,87.1,98.0,-1.2,-0.2,1.08,GOOD
1790984861764,665,2024.0,-17.106202780674238,32000.0,87.1,98.0,-1.2,-0.2,1.08,GOOD
1790984861764,666,2086.0,1.3430859817476761,32000.0,87.1,98.0,-1.2,-0.2,1.08,GOOD
1790984861764,667,2091.0,16.65077902928441,32000.0,87.1,98.0,-1.2,-0.2,1.08,GOOD
1790984861764,668,2104.0,29.925064074007782,32000.0,87.1,98.0,-1.2,-0.2,1.08,GOOD
1790984861764,669,2120.0,45.18408050988023,32000.0,87.1,98.0,-1.2,-0.2,1.08,GOOD
1790984861764,670,2097.0,62.6511052847562,32000.0,87.1,98.0,-1.2,-0.2,1.08,GOOD
1790984861764,671,2064.0,73.71099622092356,32000.0,87.1,98.0,-1.2,-0.2,1.08,GOOD
1790984861764,672,2067.0,68.06312862021568,32000.0,87.1,98.0,-1.2,-0.2,1.08,GOOD
1790984861764,673,1978.0,45.02764723202018,32000.0,87.1,98.0,-1.2,-0.2,1.08,GOOD
1790984861764,674,1945.0,9.54815411196875,32000.0,87.1,98.0,-1.2,-0.2,1.08,GOOD
1790984861764,675,1959.0,-30.983104423721702,32000.0,87.1,98.0,-1.2,-0.2,1.08,GOOD
1790984862363,676,1945.0,-65.63071533272108,-25.0,88.7,98.0,-1.3,-0.2,1.09,GOOD
1790984862363,677,2071.0,-83.05863460596296,-27.0,88.7,98.0,-1.3,-0.2,1.09,GOOD
1790984862363,678,2078.0,-72.41238277213509,-32.0,88.7,98.0,-1.3,-0.2,1.09,GOOD
1790984862363,679,2106.0,-32.91269683019863,-33.0,88.7,98.0,-1.3,-0.2,1.09,GOOD
1790984862363,680,2080.0,18.069128207102704,-35.0,88.7,98.0,-1.3,-0.2,1.09,GOOD
1790984862363,681,2282.0,64.82588701174055,-37.0,88.7,98.0,-1.3,-0.2,1.09,GOOD
1790984862363,682,2283.0,111.71540834217916,-37.0,88.7,98.0,-1.3,-0.2,1.09,GOOD
1790984862363,683,2293.0,163.54222061559602,-37.0,88.7,98.0,-1.3,-0.2,1.09,GOOD
1790984862363,684,2310.0,210.74543337305738,-39.0,88.7,98.0,-1.3,-0.2,1.09,GOOD
1790984862363,685,2368.0,247.69108415880504,-62.0,88.7,98.0,-1.3,-0.2,1.09,GOOD
1790984862363,686,2344.0,276.4040885036013,-60.0,88.7,98.0,-1.3,-0.2,1.09,GOOD
1790984862363,687,2340.0,292.3039486972091,-57.0,88.7,98.0,-1.3,-0.2,1.09,GOOD
1790984862363,688,2369.0,291.11124947562644,-52.0,88.7,98.0,-1.3,-0.2,1.09,GOOD
1790984862363,689,2405.0,284.20130496106606,-48.0,88.7,98.0,-1.3,-0.2,1.09,GOOD
1790984862363,690,2371.0,286.70804961441183,-47.0,88.7,98.0,-1.3,-0.2,1.09,GOOD
1790984862363,691,2360.0,295.778560592124,-43.0,88.7,98.0,-1.3,-0.2,1.09,GOOD
1790984862363,692,2364.0,297.1748269984146,-40.0,88.7,98.0,-1.3,-0.2,1.09,GOOD
1790984862363,693,2137.0,277.244292876434,-42.0,88.7,98.0,-1.3,-0.2,1.09,GOOD
1790984862363,694,2152.0,224.31572934305757,-37.0,88.7,98.0,-1.3,-0.2,1.09,GOOD
1790984862363,695,2131.0,146.97867025017484,-36.0,88.7,98.0,-1.3,-0.2,1.09,GOOD
1790984862363,696,1940.0,67.02090568806406,-33.0,88.7,98.0,-1.3,-0.2,1.09,GOOD
1790984862363,697,1992.0,-10.645384050633155,-32.0,88.7,98.0,-1.3,-0.2,1.09,GOOD
1790984862363,698,1979.0,-80.59746086657977,-28.0,88.7,98.0,-1.3,-0.2,1.09,GOOD
1790984862363,699,1969.0,-125.11676091153664,-25.0,88.7,98.0,-1.3,-0.2,1.09,GOOD
1790984862363,700,1976.0,-139.42539610313702,-21.0,88.7,98.0,-1.3,-0.2,1.09,GOOD
1790984862364,701,1972.0,-135.17618176852466,32000.0,88.7,98.0,-1.3,-0.2,1.09,GOOD
1790984862364,702,1947.0,-126.91797085596178,32000.0,88.7,98.0,-1.3,-0.2,1.09,GOOD
1790984862364,703,2058.0,-120.25972828241245,32000.0,88.7,98.0,-1.3,-0.2,1.09,GOOD
1790984862364,704,2046.0,-107.03580819103915,32000.0,88.7,98.0,-1.3,-0.2,1.09,GOOD
1790984862364,705,2070.0,-81.88673978624186,32000.0,88.7,98.0,-1.3,-0.2,1.09,GOOD
1790984862364,706,1872.0,-60.35040709690416,32000.0,88.7,98.0,-1.3,-0.2,1.09,GOOD
1790984862364,707,1865.0,-69.5994470591724,32000.0,88.7,98.0,-1.3,-0.2,1.09,GOOD
1790984862364,708,1851.0,-116.15251373966133,32000.0,88.7,98.0,-1.3,-0.2,1.09,GOOD
1790984862364,709,2027.0,-169.92098917747967,32000.0,88.7,98.0,-1.3,-0.2,1.09,GOOD
1790984862364,710,2028.0,-189.33754354471643,32000.0,88.7,98.0,-1.3,-0.2,1.09,GOOD
1790984862364,711,2063.0,-159.22835649422495,32000.0,88.7,98.0,-1.3,-0.2,1.09,GOOD
1790984862364,712,2072.0,-97.0819130402742,32000.0,88.7,98.0,-1.3,-0.2,1.09,GOOD
1790984862364,713,2048.0,-32.73845849699973,32000.0,88.7,98.0,-1.3,-0.2,1.09,GOOD
1790984862364,714,2023.0,5.069352112951809,32000.0,88.7,98.0,-1.3,-0.2,1.09,GOOD
1790984862364,715,2039.0,2.8417744502102673,32000.0,88.7,98.0,-1.3,-0.2,1.09,GOOD
1790984862364,716,2054.0,-24.004401814859158,32000.0,88.7,98.0,-1.3,-0.2,1.09,GOOD
1790984862364,717,2005.0,-46.71766391591902,32000.0,88.7,98.0,-1.3,-0.2,1.09,GOOD
1790984862364,718,2066.0,-51.06290516950335,32000.0,88.7,98.0,-1.3,-0.2,1.09,GOOD
1790984862364,719,2034.0,-42.06717701810377,32000.0,88.7,98.0,-1.3,-0.2,1.09,GOOD
1790984862364,720,1952.0,-37.189281683714526,32000.0,88.7,98.0,-1.3,-0.2,1.09,GOOD
1790984862364,721,1994.0,-50.87320442131066,32000.0,88.7,98.0,-1.3,-0.2,1.09,GOOD
1790984862364,722,2002.0,-73.1970456068183,32000.0,88.7,98.0,-1.3,-0.2,1.09,GOOD
1790984862364,723,1981.0,-84.33902083874216,32000.0,88.7,98.0,-1.3,-0.2,1.09,GOOD
1790984862364,724,1969.0,-84.55592130398708,32000.0,88.7,98.0,-1.3,-0.2,1.09,GOOD
1790984862364,725,1981.0,-86.45301507750507,32000.0,88.7,98.0,-1.3,-0.2,1.09,GOOD
1790984862365,726,1984.0,-91.96707469998026,32000.0,88.7,98.0,-1.3,-0.2,1.09,GOOD
1790984862365,727,2007.0,-92.17037102052197,32000.0,88.7,98.0,-1.3,-0.2,1.09,GOOD
1790984862365,728,1950.0,-84.07384228078925,32000.0,88.7,98.0,-1.3,-0.2,1.09,GOOD
1790984862365,729,1916.0,-80.05084601615778,32000.0,88.7,98.0,-1.3,-0.2,1.09,GOOD
1790984862365,730,1917.0,-93.14084684255532,32000.0,88.7,98.0,-1.3,-0.2,1.09,GOOD
1790984862365,731,1997.0,-115.08152646123119,32000.0,88.7,98.0,-1.3,-0.2,1.09,GOOD
1790984862365,732,2017.0,-121.74156006997359,32000.0,88.7,98.0,-1.3,-0.2,1.09,GOOD
1790984862365,733,1987.0,-103.23421757447555,32000.0,88.7,98.0,-1.3,-0.2,1.09,GOOD
1790984862365,734,1983.0,-75.38837095457075,32000.0,88.7,98.0,-1.3,-0.2,1.09,GOOD
1790984862365,735,2452.0,-39.11326343858617,32000.0,88.7,98.0,-1.3,-0.2,1.09,GOOD
1790984862365,736,2493.0,43.78159177730891,32000.0,88.7,98.0,-1.3,-0.2,1.09,GOOD
1790984862365,737,2545.0,186.5610414125378,32000.0,88.7,98.0,-1.3,-0.2,1.09,GOOD
1790984862365,738,2555.0,342.3096503958408,32000.0,88.7,98.0,-1.3,-0.2,1.09,GOOD
1790984862365,739,3053.0,478.8252192304483,32000.0,88.7,98.0,-1.3,-0.2,1.09,GOOD
1790984862365,740,3023.0,617.3619413803151,32000.0,88.7,98.0,-1.3,-0.2,1.09,GOOD
1790984862365,741,3049.0,761.5076365673244,32000.0,88.7,98.0,-1.3,-0.2,1.09,GOOD
1790984862365,742,3096.0,874.2406868951239,32000.0,88.7,98.0,-1.3,-0.2,1.09,GOOD
1790984862365,743,2006.0,896.4649580610804,32000.0,88.7,98.0,-1.3,-0.2,1.09,GOOD
1790984862365,744,1966.0,742.2337874352464,32000.0,88.7,98.0,-1.3,-0.2,1.09,GOOD
1790984862365,745,1841.0,404.70569724492344,32000.0,88.7,98.0,-1.3,-0.2,1.09,GOOD
1790984862365,746,1954.0,18.038356640943114,32000.0,88.7,98.0,-1.3,-0.2,1.09,GOOD
1790984862365,747,1986.0,-263.6708540460371,32000.0,88.7,98.0,-1.3,-0.2,1.09,GOOD
1790984862365,748,2026.0,-365.18664416365,32000.0,88.7,98.0,-1.3,-0.2,1.09,GOOD
1790984862365,749,1998.0,-305.82157560587837,32000.0,88.7,98.0,-1.3,-0.2,1.09,GOOD
1790984862365,750,2000.0,-178.1529222272687,32000.0,88.7,98.0,-1.3,-0.2,1.09,GOOD
1790984862570,751,1990.0,-87.10243847877365,32000.0,88.7,98.0,-1.3,-0.2,1.08,GOOD
1790984862570,752,2031.0,-78.53711961413826,32000.0,88.7,98.0,-1.3,-0.2,1.08,GOOD
1790984862570,753,2048.0,-115.9609641891873,32000.0,88.7,98.0,-1.3,-0.2,1.08,GOOD
1790984862570,754,2032.0,-134.31665660194324,32000.0,88.7,98.0,-1.3,-0.2,1.08,GOOD
1790984862570,755,1978.0,-114.92657022717107,32000.0,88.7,98.0,-1.3,-0.2,1.08,GOOD
1790984862570,756,1965.0,-95.64924782971008,32000.0,88.7,98.0,-1.3,-0.2,1.08,GOOD
1790984862570,757,1939.0,-113.04062972043329,32000.0,88.7,98.0,-1.3,-0.2,1.08,GOOD
1790984862570,758,1974.0,-155.80367669014134,32000.0,88.7,98.0,-1.3,-0.2,1.08,GOOD
1790984862570,759,1958.0,-182.55859881627399,32000.0,88.7,98.0,-1.3,-0.2,1.08,GOOD
1790984862570,760,1920.0,-176.31029448997194,32000.0,88.7,98.0,-1.3,-0.2,1.08,GOOD
1790984862570,761,1903.0,-163.3315047939801,32000.0,88.7,98.0,-1.3,-0.2,1.08,GOOD
1790984862570,762,1939.0,-171.7540361880711,32000.0,88.7,98.0,-1.3,-0.2,1.08,GOOD
1790984862570,763,1976.0,-191.773399152453,32000.0,88.7,98.0,-1.3,-0.2,1.08,GOOD
1790984862570,764,2073.0,-188.6096054628673,32000.0,88.7,98.0,-1.3,-0.2,1.08,GOOD
1790984862570,765,2023.0,-146.92489995563227,32000.0,88.7,98.0,-1.3,-0.2,1.08,GOOD
1790984862570,766,2000.0,-94.17862914534724,32000.0,88.7,98.0,-1.3,-0.2,1.08,GOOD
1790984862570,767,2059.0,-66.8462607444198,32000.0,88.7,98.0,-1.3,-0.2,1.08,GOOD
1790984862570,768,2168.0,-60.825647205842536,32000.0,88.7,98.0,-1.3,-0.2,1.08,GOOD
1790984862570,769,2048.0,-47.361394852497234,32000.0,88.7,98.0,-1.3,-0.2,1.08,GOOD
1790984862570,770,2120.0,-22.406241678577317,32000.0,88.7,98.0,-1.3,-0.2,1.08,GOOD
1790984862570,771,2156.0,0.36150015599892615,32000.0,88.7,98.0,-1.3,-0.2,1.08,GOOD
1790984862570,772,2177.0,18.025266263466406,32000.0,88.7,98.0,-1.3,-0.2,1.08,GOOD
1790984862570,773,2195.0,34.459438006368444,32000.0,88.7,98.0,-1.3,-0.2,1.08,GOOD
1790984862570,774,2165.0,51.50118988658865,32000.0,88.7,98.0,-1.3,-0.2,1.08,GOOD
1790984862570,775,2124.0,64.89375390419707,32000.0,88.7,98.0,-1.3,-0.2,1.08,GOOD
1790984862573,776,2109.0,64.51181909073229,32000.0,88.7,98.0,-1.3,-0.2,1.08,GOOD
1790984862573,777,2115.0,45.867129755445,32000.0,88.7,98.0,-1.3,-0.2,1.08,GOOD
1790984862573,778,2140.0,18.566058067894353,32000.0,88.7,98.0,-1.3,-0.2,1.08,GOOD
1790984862573,779,2097.0,-1.752321434336789,32000.0,88.7,98.0,-1.3,-0.2,1.08,GOOD
1790984862573,780,2187.0,-5.270331266751291,32000.0,88.7,98.0,-1.3,-0.2,1.08,GOOD
1790984862573,781,2193.0,11.121483704062637,32000.0,88.7,98.0,-1.3,-0.2,1.08,GOOD
1790984862573,782,2351.0,46.4312216316282,32000.0,88.7,98.0,-1.3,-0.2,1.08,GOOD
1790984862573,783,2376.0,98.62913966942828,32000.0,88.7,98.0,-1.3,-0.2,1.08,GOOD
1790984862573,784,2369.0,160.7373917737852,32000.0,88.7,98.0,-1.3,-0.2,1.08,GOOD
1790984862573,785,2337.0,215.3790551636008,32000.0,88.7,98.0,-1.3,-0.2,1.08,GOOD
1790984862573,786,2413.0,248.645287805638,32000.0,88.7,98.0,-1.3,-0.2,1.08,GOOD
1790984862573,787,2428.0,262.9091848046215,32000.0,88.7,98.0,-1.3,-0.2,1.08,GOOD
1790984862573,788,2441.0,267.2911135288205,32000.0,88.7,98.0,-1.3,-0.2,1.08,GOOD
1790984862573,789,2363.0,265.37760928370653,32000.0,88.7,98.0,-1.3,-0.2,1.08,GOOD
1790984862573,790,2365.0,256.769450769337,32000.0,88.7,98.0,-1.3,-0.2,1.08,GOOD
1790984862573,791,2332.0,242.49752978584104,32000.0,88.7,98.0,-1.3,-0.2,1.08,GOOD
1790984862573,792,2338.0,222.40101880117166,32000.0,88.7,98.0,-1.3,-0.2,1.08,GOOD
1790984862573,793,2197.0,189.71378912590433,32000.0,88.7,98.0,-1.3,-0.2,1.08,GOOD
1790984862573,794,2186.0,137.90190730985842,32000.0,88.7,98.0,-1.3,-0.2,1.08,GOOD
1790984862573,795,2132.0,76.1163264412259,32000.0,88.7,98.0,-1.3,-0.2,1.08,GOOD
1790984862573,796,2138.0,23.35030072690317,32000.0,88.7,98.0,-1.3,-0.2,1.08,GOOD
1790984862573,797,2004.0,-17.69887778774554,32000.0,88.7,98.0,-1.3,-0.2,1.08,GOOD
1790984862573,798,2011.0,-62.64316734004624,32000.0,88.7,98.0,-1.3,-0.2,1.08,GOOD
1790984862573,799,2001.0,-114.90219788413467,32000.0,88.7,98.0,-1.3,-0.2,1.08,GOOD
1790984862573,800,1968.0,-157.21014354579353,32000.0,88.7,98.0,-1.3,-0.2,1.08,GOOD
1790984862732,801,1851.0,-183.39038537090838,32000.0,88.7,98.0,-1.3,-0.2,1.09,GOOD
1790984862732,802,1878.0,-209.32898188431034,32000.0,88.7,98.0,-1.3,-0.2,1.09,GOOD
1790984862732,803,1907.0,-242.5266744738642,32000.0,88.7,98.0,-1.3,-0.2,1.09,GOOD
1790984862732,804,1889.0,-269.69604844323305,32000.0,88.7,98.0,-1.3,-0.2,1.09,GOOD
1790984862732,805,1912.0,-277.8530951572367,32000.0,88.7,98.0,-1.3,-0.2,1.09,GOOD
1790984862732,806,1897.0,-266.67154312189183,32000.0,88.7,98.0,-1.3,-0.2,1.09,GOOD
1790984862732,807,1832.0,-249.2349775194613,32000.0,88.7,98.0,-1.3,-0.2,1.09,GOOD
1790984862732,808,1933.0,-241.75283380641034,32000.0,88.7,98.0,-1.3,-0.2,1.09,GOOD
1790984862732,809,1925.0,-242.4091693682018,32000.0,88.7,98.0,-1.3,-0.2,1.09,GOOD
1790984862732,810,1915.0,-238.0911720611298,32000.0,88.7,98.0,-1.3,-0.2,1.09,GOOD
1790984862732,811,1907.0,-225.70815614093306,32000.0,88.7,98.0,-1.3,-0.2,1.09,GOOD
1790984862732,812,1936.0,-209.93583838248153,32000.0,88.7,98.0,-1.3,-0.2,1.09,GOOD
1790984862732,813,1949.0,-194.80375839038453,32000.0,88.7,98.0,-1.3,-0.2,1.09,GOOD
1790984862732,814,1967.0,-182.8313231693755,32000.0,88.7,98.0,-1.3,-0.2,1.09,GOOD
1790984862732,815,1893.0,-176.15051490886748,32000.0,88.7,98.0,-1.3,-0.2,1.09,GOOD
1790984862732,816,1887.0,-177.3721431179178,32000.0,88.7,98.0,-1.3,-0.2,1.09,GOOD
1790984862732,817,1899.0,-185.24122302064518,32000.0,88.7,98.0,-1.3,-0.2,1.09,GOOD
1790984862732,818,1875.0,-195.4350865645727,32000.0,88.7,98.0,-1.3,-0.2,1.09,GOOD
1790984862732,819,1938.0,-205.4152710852883,32000.0,88.7,98.0,-1.3,-0.2,1.09,GOOD
1790984862732,820,1921.0,-209.20066523072376,32000.0,88.7,98.0,-1.3,-0.2,1.09,GOOD
1790984862732,821,1915.0,-200.01348318462095,32000.0,88.7,98.0,-1.3,-0.2,1.09,GOOD
1790984862732,822,1796.0,-185.76787560523542,32000.0,88.7,98.0,-1.3,-0.2,1.09,GOOD
1790984862732,823,1792.0,-188.42277043485439,32000.0,88.7,98.0,-1.3,-0.2,1.09,GOOD
1790984862732,824,1791.0,-218.8200903013294,32000.0,88.7,98.0,-1.3,-0.2,1.09,GOOD
1790984862732,825,1761.0,-263.15162006900846,32000.0,88.7,98.0,-1.3,-0.2,1.09,GOOD
1790984862840,826,1945.0,-292.2130617379095,32000.0,88.7,98.0,-1.3,-0.3,1.08,GOOD
1790984862840,827,1951.0,-276.324544575034,32000.0,88.7,98.0,-1.3,-0.3,1.08,GOOD
1790984862840,828,1981.0,-214.21819614931752,32000.0,88.7,98.0,-1.3,-0.3,1.08,GOOD
1790984862840,829,2001.0,-139.0164193091452,32000.0,88.7,98.0,-1.3,-0.3,1.08,GOOD
1790984862840,830,1983.0,-83.04166567170601,32000.0,88.7,98.0,-1.3,-0.3,1.08,GOOD
1790984862840,831,1984.0,-56.64281563902424,32000.0,88.7,98.0,-1.3,-0.3,1.08,GOOD
1790984862840,832,1991.0,-52.69865193850316,32000.0,88.7,98.0,-1.3,-0.3,1.08,GOOD
1790984862840,833,1962.0,-59.175751494693316,32000.0,88.7,98.0,-1.3,-0.3,1.08,GOOD
1790984862840,834,1960.0,-70.08234148977026,32000.0,88.7,98.0,-1.3,-0.3,1.08,GOOD
1790984862840,835,1926.0,-83.96465905801519,32000.0,88.7,98.0,-1.3,-0.3,1.08,GOOD
1790984862840,836,1944.0,-97.8171403128166,32000.0,88.7,98.0,-1.3,-0.3,1.08,GOOD
1790984862840,837,1964.0,-105.67572447314467,32000.0,88.7,98.0,-1.3,-0.3,1.08,GOOD
1790984862840,838,1963.0,-103.4854389515924,32000.0,88.7,98.0,-1.3,-0.3,1.08,GOOD
1790984862840,839,1939.0,-95.6127895259169,32000.0,88.7,98.0,-1.3,-0.3,1.08,GOOD
1790984862840,840,1916.0,-91.46420538782462,32000.0,88.7,98.0,-1.3,-0.3,1.08,GOOD
1790984862840,841,1891.0,-96.44214332018903,32000.0,88.7,98.0,-1.3,-0.3,1.08,GOOD
1790984862840,842,1914.0,-108.47334311874218,32000.0,88.7,98.0,-1.3,-0.3,1.08,GOOD
1790984862840,843,1908.0,-120.84886493866577,32000.0,88.7,98.0,-1.3,-0.3,1.08,GOOD
1790984862840,844,2001.0,-124.83760809944768,32000.0,88.7,98.0,-1.3,-0.3,1.08,GOOD
1790984862840,845,1981.0,-111.7958109478176,32000.0,88.7,98.0,-1.3,-0.3,1.08,GOOD
1790984862840,846,1970.0,-83.59340757902649,32000.0,88.7,98.0,-1.3,-0.3,1.08,GOOD
1790984862840,847,1985.0,-54.53716320192074,32000.0,88.7,98.0,-1.3,-0.3,1.08,GOOD
1790984862840,848,2032.0,-34.37423671631045,32000.0,88.7,98.0,-1.3,-0.3,1.08,GOOD
1790984862840,849,2028.0,-21.412840109681785,32000.0,88.7,98.0,-1.3,-0.3,1.08,GOOD
1790984862840,850,2015.0,-12.347784793025555,32000.0,88.7,98.0,-1.3,-0.3,1.08,GOOD
1790984862935,851,2004.0,-6.803167815327446,32000.0,88.7,98.0,-1.2,-0.3,1.09,GOOD
1790984862935,852,1983.0,-5.161195849926888,32000.0,88.7,98.0,-1.2,-0.3,1.09,GOOD
1790984862935,853,1994.0,-8.628345547635298,32000.0,88.7,98.0,-1.2,-0.3,1.09,GOOD
1790984862935,854,2003.0,-17.045894464149228,32000.0,88.7,98.0,-1.2,-0.3,1.09,GOOD
1790984862935,855,1954.0,-27.739007775410577,32000.0,88.7,98.0,-1.2,-0.3,1.09,GOOD
1790984862935,856,1958.0,-38.617364172584715,32000.0,88.7,98.0,-1.2,-0.3,1.09,GOOD
1790984862935,857,1957.0,-47.08807401993536,32000.0,88.7,98.0,-1.2,-0.3,1.09,GOOD
1790984862935,858,1972.0,-50.65970224553266,32000.0,88.7,98.0,-1.2,-0.3,1.09,GOOD
1790984862935,859,1971.0,-50.85699279950135,32000.0,88.7,98.0,-1.2,-0.3,1.09,GOOD
1790984862935,860,1928.0,-52.072980015023006,32000.0,88.7,98.0,-1.2,-0.3,1.09,GOOD
1790984862935,861,1973.0,-55.36168554926487,32000.0,88.7,98.0,-1.2,-0.3,1.09,GOOD
1790984862935,862,1972.0,-54.69448689797781,32000.0,88.7,98.0,-1.2,-0.3,1.09,GOOD
1790984862935,863,2030.0,-44.4683533059641,32000.0,88.7,98.0,-1.2,-0.3,1.09,GOOD
1790984862935,864,2033.0,-26.16430368932517,32000.0,88.7,98.0,-1.2,-0.3,1.09,GOOD
1790984862935,865,2017.0,-5.766011279914052,32000.0,88.7,98.0,-1.2,-0.3,1.09,GOOD
1790984862935,866,2090.0,13.585994358959812,32000.0,88.7,98.0,-1.2,-0.3,1.09,GOOD
1790984862935,867,2091.0,36.034907221183275,32000.0,88.7,98.0,-1.2,-0.3,1.09,GOOD
1790984862935,868,2087.0,61.33056826904402,32000.0,88.7,98.0,-1.2,-0.3,1.09,GOOD
1790984862935,869,2081.0,78.84828343040323,32000.0,88.7,98.0,-1.2,-0.3,1.09,GOOD
1790984862935,870,1965.0,78.08376467782149,32000.0,88.7,98.0,-1.2,-0.3,1.09,GOOD
1790984862935,871,1996.0,56.1401360286531,32000.0,88.7,98.0,-1.2,-0.3,1.09,GOOD
1790984862935,872,2009.0,23.859905715507253,32000.0,88.7,98.0,-1.2,-0.3,1.09,GOOD
1790984862935,873,2011.0,-1.4160322706027362,32000.0,88.7,98.0,-1.2,-0.3,1.09,GOOD
1790984862935,874,1861.0,-18.99200156758458,32000.0,88.7,98.0,-1.2,-0.3,1.09,GOOD
1790984862935,875,1969.0,-40.04088322323086,32000.0,88.7,98.0,-1.2,-0.3,1.09,GOOD
1790984863011,876,1962.0,-58.5420326206444,32000.0,89.6,98.0,-1.2,-0.3,1.08,GOOD
1790984863011,877,1981.0,-59.99263623297405,32000.0,89.6,98.0,-1.2,-0.3,1.08,GOOD
1790984863011,878,1972.0,-48.30273604835913,32000.0,89.6,98.0,-1.2,-0.3,1.08,GOOD
1790984863011,879,1971.0,-36.484478788178194,32000.0,89.6,98.0,-1.2,-0.3,1.08,GOOD
1790984863011,880,1945.0,-29.6949797648947,32000.0,89.6,98.0,-1.2,-0.3,1.08,GOOD
1790984863011,881,2010.0,-25.219346210071226,32000.0,89.6,98.0,-1.2,-0.3,1.08,GOOD
1790984863011,882,2003.0,-18.109478814413176,32000.0,89.6,98.0,-1.2,-0.3,1.08,GOOD
1790984863011,883,1993.0,-9.27933150038509,32000.0,89.6,98.0,-1.2,-0.3,1.08,GOOD
1790984863011,884,2088.0,-0.15185193979548472,32000.0,89.6,98.0,-1.2,-0.3,1.08,GOOD
1790984863011,885,2088.0,18.428407185268544,32000.0,89.6,98.0,-1.2,-0.3,1.08,GOOD
1790984863011,886,1972.0,46.17987400334769,32000.0,89.6,98.0,-1.2,-0.3,1.08,GOOD
1790984863011,887,2090.0,63.544883384374174,32000.0,89.6,98.0,-1.2,-0.3,1.08,GOOD
1790984863011,888,2661.0,87.67960066354524,32000.0,89.6,98.0,-1.2,-0.3,1.08,GOOD
1790984863011,889,2721.0,185.39012871885365,32000.0,89.6,98.0,-1.2,-0.3,1.08,GOOD
1790984863011,890,2789.0,374.62837879060345,32000.0,89.6,98.0,-1.2,-0.3,1.08,GOOD
1790984863011,891,2832.0,589.3484889228525,32000.0,89.6,98.0,-1.2,-0.3,1.08,GOOD
1790984863011,892,2447.0,741.6747434427488,32000.0,89.6,98.0,-1.2,-0.3,1.08,GOOD
1790984863011,893,2369.0,759.1991225407785,32000.0,89.6,98.0,-1.2,-0.3,1.08,GOOD
1790984863011,894,2310.0,631.1159241153371,32000.0,89.6,98.0,-1.2,-0.3,1.08,GOOD
1790984863011,895,2275.0,431.90425553095105,32000.0,89.6,98.0,-1.2,-0.3,1.08,GOOD
1790984863011,896,1812.0,240.85395599007848,32000.0,89.6,98.0,-1.2,-0.3,1.08,GOOD
1790984863011,897,1829.0,74.05413953184625,32000.0,89.6,98.0,-1.2,-0.3,1.08,GOOD
1790984863011,898,1805.0,-72.6202999271845,32000.0,89.6,98.0,-1.2,-0.3,1.08,GOOD
1790984863011,899,2001.0,-178.23075838551,32000.0,89.6,98.0,-1.2,-0.3,1.08,GOOD
1790984863011,900,1979.0,-219.55770739497015,32000.0,89.6,98.0,-1.2,-0.3,1.08,GOOD
1790984863188,901,2018.0,-196.74193256544018,32000.0,89.6,98.0,-1.3,-0.3,1.08,GOOD
1790984863188,902,2031.0,-129.3676944889334,32000.0,89.6,98.0,-1.3,-0.3,1.08,GOOD
1790984863188,903,1989.0,-49.62753282683611,32000.0,89.6,98.0,-1.3,-0.3,1.08,GOOD
1790984863188,904,1943.0,-1.6809382858389235,32000.0,89.6,98.0,-1.3,-0.3,1.08,GOOD
1790984863188,905,1937.0,-14.874125332936618,32000.0,89.6,98.0,-1.3,-0.3,1.08,GOOD
1790984863188,906,2000.0,-67.4527676438093,32000.0,89.6,98.0,-1.3,-0.3,1.08,GOOD
1790984863188,907,2011.0,-102.95645550643101,32000.0,89.6,98.0,-1.3,-0.3,1.08,GOOD
1790984863188,908,2000.0,-91.09307866493103,32000.0,89.6,98.0,-1.3,-0.3,1.08,GOOD
1790984863188,909,1973.0,-55.989074658269296,32000.0,89.6,98.0,-1.3,-0.3,1.08,GOOD
1790984863188,910,2064.0,-35.228900378328674,32000.0,89.6,98.0,-1.3,-0.3,1.08,GOOD
1790984863188,911,2086.0,-30.18817500554388,32000.0,89.6,98.0,-1.3,-0.3,1.08,GOOD
1790984863188,912,2105.0,-15.659833822918287,32000.0,89.6,98.0,-1.3,-0.3,1.08,GOOD
1790984863188,913,2089.0,17.92181673955363,32000.0,89.6,98.0,-1.3,-0.3,1.08,GOOD
1790984863188,914,1936.0,46.41706678298277,32000.0,89.6,98.0,-1.3,-0.3,1.08,GOOD
1790984863188,915,1920.0,33.566095296782905,32000.0,89.6,98.0,-1.3,-0.3,1.08,GOOD
1790984863188,916,1951.0,-23.024652102642236,32000.0,89.6,98.0,-1.3,-0.3,1.08,GOOD
1790984863188,917,2088.0,-78.24013332559596,32000.0,89.6,98.0,-1.3,-0.3,1.08,GOOD
1790984863188,918,2064.0,-85.88013244395175,32000.0,89.6,98.0,-1.3,-0.3,1.08,GOOD
1790984863188,919,2041.0,-47.805011660051846,32000.0,89.6,98.0,-1.3,-0.3,1.08,GOOD
1790984863188,920,2033.0,-2.8853397942067955,32000.0,89.6,98.0,-1.3,-0.3,1.08,GOOD
1790984863188,921,2128.0,23.96275008687915,32000.0,89.6,98.0,-1.3,-0.3,1.08,GOOD
1790984863188,922,2135.0,39.93584426896321,32000.0,89.6,98.0,-1.3,-0.3,1.08,GOOD
1790984863188,923,2117.0,56.57373638594909,32000.0,89.6,98.0,-1.3,-0.3,1.08,GOOD
1790984863188,924,2174.0,73.63158478081536,32000.0,89.6,98.0,-1.3,-0.3,1.08,GOOD
1790984863188,925,2189.0,92.01410567114192,32000.0,89.6,98.0,-1.3,-0.3,1.08,GOOD
1790984863266,926,2219.0,115.20577784023929,32000.0,89.6,98.0,-1.2,-0.3,1.08,GOOD
1790984863266,927,2231.0,140.043398836439,32000.0,89.6,98.0,-1.2,-0.3,1.08,GOOD
1790984863266,928,2289.0,162.26024897390437,32000.0,89.6,98.0,-1.2,-0.3,1.08,GOOD
1790984863266,929,2290.0,184.0439221864812,32000.0,89.6,98.0,-1.2,-0.3,1.08,GOOD
1790984863266,930,2274.0,206.63932804296002,32000.0,89.6,98.0,-1.2,-0.3,1.08,GOOD
1790984863266,931,2273.0,223.14300978391458,32000.0,89.6,98.0,-1.2,-0.3,1.08,GOOD
1790984863266,932,2352.0,229.43588376540623,32000.0,89.6,98.0,-1.2,-0.3,1.08,GOOD
1790984863266,933,2362.0,233.86473638486848,32000.0,89.6,98.0,-1.2,-0.3,1.08,GOOD
1790984863266,934,2334.0,244.46583971120572,32000.0,89.6,98.0,-1.2,-0.3,1.08,GOOD
1790984863266,935,2354.0,258.07308341106796,32000.0,89.6,98.0,-1.2,-0.3,1.08,GOOD
1790984863266,936,2389.0,270.12819315017134,32000.0,89.6,98.0,-1.2,-0.3,1.08,GOOD
1790984863266,937,2361.0,278.9355663034036,32000.0,89.6,98.0,-1.2,-0.3,1.08,GOOD
1790984863266,938,2349.0,279.30445580877245,32000.0,89.6,98.0,-1.2,-0.3,1.08,GOOD
1790984863266,939,2322.0,267.74758059304224,32000.0,89.6,98.0,-1.2,-0.3,1.08,GOOD
1790984863266,940,2317.0,249.27363432155045,32000.0,89.6,98.0,-1.2,-0.3,1.08,GOOD
1790984863266,941,2340.0,232.02604891164847,32000.0,89.6,98.0,-1.2,-0.3,1.08,GOOD
1790984863266,942,2338.0,220.08165344976433,32000.0,89.6,98.0,-1.2,-0.3,1.08,GOOD
1790984863266,943,2332.0,212.1514287202238,32000.0,89.6,98.0,-1.2,-0.3,1.08,GOOD
1790984863266,944,2212.0,201.99095987883064,32000.0,89.6,98.0,-1.2,-0.3,1.08,GOOD
1790984863266,945,2149.0,178.15627381859002,32000.0,89.6,98.0,-1.2,-0.3,1.08,GOOD
1790984863266,946,2067.0,130.66796806987708,32000.0,89.6,98.0,-1.2,-0.3,1.08,GOOD
1790984863266,947,2032.0,59.789993163109735,32000.0,89.6,98.0,-1.2,-0.3,1.08,GOOD
1790984863266,948,2038.0,-20.330353835627363,32000.0,89.6,98.0,-1.2,-0.3,1.08,GOOD
1790984863266,949,2030.0,-84.96343830580787,32000.0,89.6,98.0,-1.2,-0.3,1.08,GOOD
1790984863266,950,2041.0,-114.96063955635115,32000.0,89.6,98.0,-1.2,-0.3,1.08,GOOD
1790984863464,951,1995.0,-113.5021546148229,32000.0,89.6,98.0,-1.3,-0.3,1.08,GOOD
1790984863464,952,1988.0,-103.79517871971177,32000.0,89.6,98.0,-1.3,-0.3,1.08,GOOD
1790984863464,953,1957.0,-107.50147319428648,32000.0,89.6,98.0,-1.3,-0.3,1.08,GOOD
1790984863464,954,1963.0,-126.69618424564257,32000.0,89.6,98.0,-1.3,-0.3,1.08,GOOD
1790984863464,955,1867.0,-151.28977941923796,32000.0,89.6,98.0,-1.3,-0.3,1.08,GOOD
1790984863464,956,1874.0,-177.0034507106074,32000.0,89.6,98.0,-1.3,-0.3,1.08,GOOD
1790984863464,957,1827.0,-205.84144711618507,32000.0,89.6,98.0,-1.3,-0.3,1.08,GOOD
1790984863464,958,1911.0,-234.10500332392613,32000.0,89.6,98.0,-1.3,-0.3,1.08,GOOD
1790984863464,959,1896.0,-248.9774095609418,32000.0,89.6,98.0,-1.3,-0.3,1.08,GOOD
1790984863464,960,1891.0,-242.23530778691514,32000.0,89.6,98.0,-1.3,-0.3,1.08,GOOD
1790984863464,961,1912.0,-220.63151114203612,32000.0,89.6,98.0,-1.3,-0.3,1.08,GOOD
1790984863464,962,1818.0,-200.52815654566348,32000.0,89.6,98.0,-1.3,-0.3,1.08,GOOD
1790984863464,963,1812.0,-200.11829822602675,32000.0,89.6,98.0,-1.3,-0.3,1.08,GOOD
1790984863464,964,1800.0,-224.11019107339126,32000.0,89.6,98.0,-1.3,-0.3,1.08,GOOD
1790984863464,965,1877.0,-253.55266484200456,32000.0,89.6,98.0,-1.3,-0.3,1.08,GOOD
1790984863464,966,1925.0,-261.03256364099894,32000.0,89.6,98.0,-1.3,-0.3,1.08,GOOD
1790984863464,967,1935.0,-235.49681403810806,32000.0,89.6,98.0,-1.3,-0.3,1.08,GOOD
1790984863464,968,1916.0,-191.5137766031625,32000.0,89.6,98.0,-1.3,-0.3,1.08,GOOD
1790984863464,969,1914.0,-153.3003316552381,32000.0,89.6,98.0,-1.3,-0.3,1.08,GOOD
1790984863464,970,1909.0,-134.12212987571564,32000.0,89.6,98.0,-1.3,-0.3,1.08,GOOD
1790984863464,971,1910.0,-132.89755362424822,32000.0,89.6,98.0,-1.3,-0.3,1.08,GOOD
1790984863464,972,1933.0,-140.68887338140837,32000.0,89.6,98.0,-1.3,-0.3,1.08,GOOD
1790984863464,973,1921.0,-146.6343678275793,32000.0,89.6,98.0,-1.3,-0.3,1.08,GOOD
1790984863464,974,1798.0,-149.56926428212154,32000.0,89.6,98.0,-1.3,-0.3,1.08,GOOD
1790984863464,975,1920.0,-157.2249950687538,32000.0,89.6,98.0,-1.3,-0.3,1.08,GOOD
1790984863583,976,1982.0,-162.6647012405179,32000.0,89.6,98.0,-1.3,-0.4,1.09,GOOD
1790984863583,977,1984.0,-149.21072547421298,32000.0,89.6,98.0,-1.3,-0.4,1.09,GOOD
1790984863583,978,1988.0,-117.97302236890309,32000.0,89.6,98.0,-1.3,-0.4,1.09,GOOD
1790984863583,979,1955.0,-83.93622754503558,32000.0,89.6,98.0,-1.3,-0.4,1.09,GOOD
1790984863583,980,1978.0,-59.26941873121901,32000.0,89.6,98.0,-1.3,-0.4,1.09,GOOD
1790984863583,981,1968.0,-49.53677413655052,32000.0,89.6,98.0,-1.3,-0.4,1.09,GOOD
1790984863583,982,1885.0,-58.06834526032599,32000.0,89.6,98.0,-1.3,-0.4,1.09,GOOD
1790984863583,983,1930.0,-83.67140402006504,32000.0,89.6,98.0,-1.3,-0.4,1.09,GOOD
1790984863583,984,1931.0,-109.95415012687653,32000.0,89.6,98.0,-1.3,-0.4,1.09,GOOD
1790984863583,985,1945.0,-117.78838528555049,32000.0,89.6,98.0,-1.3,-0.4,1.09,GOOD
1790984863583,986,1953.0,-107.62243820832629,32000.0,89.6,98.0,-1.3,-0.4,1.09,GOOD
1790984863583,987,1956.0,-93.14200886460308,32000.0,89.6,98.0,-1.3,-0.4,1.09,GOOD
1790984863583,988,1953.0,-82.68516367369341,32000.0,89.6,98.0,-1.3,-0.4,1.09,GOOD
1790984863583,989,1974.0,-74.14236427422615,32000.0,89.6,98.0,-1.3,-0.4,1.09,GOOD
1790984863583,990,1957.0,-63.77433824805433,32000.0,89.6,98.0,-1.3,-0.4,1.09,GOOD
1790984863583,991,1916.0,-57.183956152169834,32000.0,89.6,98.0,-1.3,-0.4,1.09,GOOD
1790984863583,992,1911.0,-64.38845128446087,32000.0,89.6,98.0,-1.3,-0.4,1.09,GOOD
1790984863583,993,1901.0,-83.8732227319465,32000.0,89.6,98.0,-1.3,-0.4,1.09,GOOD
1790984863583,994,1926.0,-101.82612257103868,32000.0,89.6,98.0,-1.3,-0.4,1.09,GOOD
1790984863583,995,1910.0,-107.74059336294007,32000.0,89.6,98.0,-1.3,-0.4,1.09,GOOD
1790984863583,996,1891.0,-105.20696685802946,32000.0,89.6,98.0,-1.3,-0.4,1.09,GOOD
1790984863583,997,1890.0,-104.667346724058,32000.0,89.6,98.0,-1.3,-0.4,1.09,GOOD
1790984863583,998,2044.0,-102.7847419424664,32000.0,89.6,98.0,-1.3,-0.4,1.09,GOOD
1790984863583,999,2052.0,-80.51306186010605,32000.0,89.6,98.0,-1.3,-0.4,1.09,GOOD
1790984863583,1000,2064.0,-33.044565218150396,32000.0,89.6,98.0,-1.3,-0.4,1.09,GOOD
1790984863686,1001,1977.0,15.84826613318442,32000.0,90.7,98.0,-1.3,-0.3,1.09,GOOD
1790984863686,1002,1978.0,38.32347213328761,32000.0,90.7,98.0,-1.3,-0.3,1.09,GOOD
1790984863686,1003,1974.0,28.82245733873038,32000.0,90.7,98.0,-1.3,-0.3,1.09,GOOD
1790984863686,1004,1970.0,2.209190087804151,32000.0,90.7,98.0,-1.3,-0.3,1.09,GOOD
1790984863686,1005,1984.0,-24.322206146727293,32000.0,90.7,98.0,-1.3,-0.3,1.09,GOOD
1790984863686,1006,1999.0,-38.5775508867686,32000.0,90.7,98.0,-1.3,-0.3,1.09,GOOD
1790984863686,1007,1997.0,-34.673117977999766,32000.0,90.7,98.0,-1.3,-0.3,1.09,GOOD
1790984863686,1008,1762.0,-27.011219976399587,32000.0,90.7,98.0,-1.3,-0.3,1.09,GOOD
1790984863686,1009,1849.0,-46.12164559717024,32000.0,90.7,98.0,-1.3,-0.3,1.09,GOOD
1790984863686,1010,1827.0,-96.1866403920817,32000.0,90.7,98.0,-1.3,-0.3,1.09,GOOD
1790984863686,1011,1827.0,-148.25185176562525,32000.0,90.7,98.0,-1.3,-0.3,1.09,GOOD
1790984863686,1012,2040.0,-170.30862154005118,32000.0,90.7,98.0,-1.3,-0.3,1.09,GOOD
1790984863686,1013,2023.0,-139.59548804452936,32000.0,90.7,98.0,-1.3,-0.3,1.09,GOOD
1790984863686,1014,2016.0,-65.25269782003858,32000.0,90.7,98.0,-1.3,-0.3,1.09,GOOD
1790984863686,1015,1998.0,9.142794924744464,32000.0,90.7,98.0,-1.3,-0.3,1.09,GOOD
1790984863686,1016,2085.0,52.073313085533286,32000.0,90.7,98.0,-1.3,-0.3,1.09,GOOD
1790984863686,1017,2081.0,68.3521772162641,32000.0,90.7,98.0,-1.3,-0.3,1.09,GOOD
1790984863686,1018,2087.0,75.77810099562186,32000.0,90.7,98.0,-1.3,-0.3,1.09,GOOD
1790984863686,1019,2070.0,82.54605278070207,32000.0,90.7,98.0,-1.3,-0.3,1.09,GOOD
1790984863686,1020,1980.0,84.92213214975907,32000.0,90.7,98.0,-1.3,-0.3,1.09,GOOD
1790984863686,1021,2096.0,77.30910952048097,32000.0,90.7,98.0,-1.3,-0.3,1.09,GOOD
1790984863686,1022,2029.0,64.9697221776556,32000.0,90.7,98.0,-1.3,-0.3,1.09,GOOD
1790984863686,1023,1936.0,50.75952768887944,32000.0,90.7,98.0,-1.3,-0.3,1.09,GOOD
1790984863686,1024,1932.0,25.80585834962938,32000.0,90.7,98.0,-1.3,-0.3,1.09,GOOD
1790984863686,1025,1922.0,-8.47329875187697,32000.0,90.7,98.0,-1.3,-0.3,1.09,GOOD
1790984863688,1026,1922.0,-38.986619422892666,32000.0,90.7,98.0,-1.3,-0.3,1.09,GOOD
1790984863688,1027,1934.0,-59.22275091366386,32000.0,90.7,98.0,-1.3,-0.3,1.09,GOOD
1790984863688,1028,1950.0,-68.4612186001972,32000.0,90.7,98.0,-1.3,-0.3,1.09,GOOD
1790984863688,1029,1943.0,-65.12129878964649,32000.0,90.7,98.0,-1.3,-0.3,1.09,GOOD
1790984863688,1030,1952.0,-50.56382206062953,32000.0,90.7,98.0,-1.3,-0.3,1.09,GOOD
1790984863688,1031,1980.0,-31.71150814101319,32000.0,90.7,98.0,-1.3,-0.3,1.09,GOOD
1790984863688,1032,1947.0,-17.631153508718675,32000.0,90.7,98.0,-1.3,-0.3,1.09,GOOD
1790984863688,1033,1947.0,-14.959610128491805,32000.0,90.7,98.0,-1.3,-0.3,1.09,GOOD
1790984863688,1034,1933.0,-21.78236729664367,32000.0,90.7,98.0,-1.3,-0.3,1.09,GOOD
1790984863688,1035,2008.0,-26.57932880790922,32000.0,90.7,98.0,-1.3,-0.3,1.09,GOOD
1790984863688,1036,2028.0,-17.64122045344248,32000.0,90.7,98.0,-1.3,-0.3,1.09,GOOD
1790984863688,1037,2022.0,4.271525842194588,32000.0,90.7,98.0,-1.3,-0.3,1.09,GOOD
1790984863688,1038,1991.0,25.940838360548984,32000.0,90.7,98.0,-1.3,-0.3,1.09,GOOD
1790984863688,1039,1993.0,36.90864505941415,32000.0,90.7,98.0,-1.3,-0.3,1.09,GOOD
1790984863688,1040,1951.0,36.11595316661792,32000.0,90.7,98.0,-1.3,-0.3,1.09,GOOD
1790984863688,1041,1897.0,21.93782290054864,32000.0,90.7,98.0,-1.3,-0.3,1.09,GOOD
1790984863688,1042,2454.0,13.171030694657242,32000.0,90.7,98.0,-1.3,-0.3,1.09,GOOD
1790984863688,1043,2496.0,68.87470111683405,32000.0,90.7,98.0,-1.3,-0.3,1.09,GOOD
1790984863688,1044,2536.0,214.65850555646324,32000.0,90.7,98.0,-1.3,-0.3,1.09,GOOD
1790984863688,1045,2576.0,395.26037402385725,32000.0,90.7,98.0,-1.3,-0.3,1.09,GOOD
1790984863688,1046,3162.0,563.9070084691124,32000.0,90.7,98.0,-1.3,-0.3,1.09,GOOD
1790984863688,1047,3122.0,734.9151796911274,32000.0,90.7,98.0,-1.3,-0.3,1.09,GOOD
1790984863688,1048,3117.0,905.3621492118159,32000.0,90.7,98.0,-1.3,-0.3,1.09,GOOD
1790984863688,1049,1815.0,978.2196581527846,32000.0,90.7,98.0,-1.3,-0.3,1.09,GOOD
1790984863688,1050,1820.0,820.6253286421257,32000.0,90.7,98.0,-1.3,-0.3,1.09,GOOD
1790984863980,1051,1734.0,440.94396873734223,-620.0,90.7,98.0,-1.3,-0.3,1.08,GOOD
1790984863980,1052,1665.0,6.062667850259281,-618.0,90.7,98.0,-1.3,-0.3,1.08,GOOD
1790984863980,1053,2020.0,-320.46102430310634,-616.0,90.7,98.0,-1.3,-0.3,1.08,GOOD
1790984863980,1054,2072.0,-438.1437912368839,-614.0,90.7,98.0,-1.3,-0.3,1.08,GOOD
1790984863980,1055,2112.0,-330.65088240875406,-612.0,90.7,98.0,-1.3,-0.3,1.08,GOOD
1790984863980,1056,2053.0,-103.76173282579416,-609.0,90.7,98.0,-1.3,-0.3,1.08,GOOD
1790984863980,1057,1928.0,75.26354753784628,-608.0,90.7,98.0,-1.3,-0.3,1.08,GOOD
1790984863980,1058,1956.0,101.07360308409534,-605.0,90.7,98.0,-1.3,-0.3,1.08,GOOD
1790984863980,1059,2017.0,8.894678775221035,-602.0,90.7,98.0,-1.3,-0.3,1.08,GOOD
1790984863980,1060,2051.0,-78.02235188729594,-599.0,90.7,98.0,-1.3,-0.3,1.08,GOOD
1790984863980,1061,1923.0,-87.72795168080742,-601.0,90.7,98.0,-1.3,-0.3,1.08,GOOD
1790984863980,1062,1893.0,-59.64947756979191,-600.0,90.7,98.0,-1.3,-0.3,1.08,GOOD
1790984863980,1063,1898.0,-64.19231528235773,-600.0,90.7,98.0,-1.3,-0.3,1.08,GOOD
1790984863980,1064,2045.0,-103.54102679343994,-598.0,90.7,98.0,-1.3,-0.3,1.08,GOOD
1790984863980,1065,2048.0,-119.33604006309949,-598.0,90.7,98.0,-1.3,-0.3,1.08,GOOD
1790984863980,1066,2004.0,-80.6302228339492,-600.0,90.7,98.0,-1.3,-0.3,1.08,GOOD
1790984863980,1067,1869.0,-28.726604337092276,-598.0,90.7,98.0,-1.3,-0.3,1.08,GOOD
1790984863980,1068,2025.0,-18.67482369373039,-595.0,90.7,98.0,-1.3,-0.3,1.08,GOOD
1790984863980,1069,2070.0,-43.04669900639193,-595.0,90.7,98.0,-1.3,-0.3,1.08,GOOD
1790984863980,1070,2094.0,-51.170534787489984,-597.0,90.7,98.0,-1.3,-0.3,1.08,GOOD
1790984863980,1071,2157.0,-17.395311103300827,-594.0,90.7,98.0,-1.3,-0.3,1.08,GOOD
1790984863980,1072,2107.0,41.33126315831796,-596.0,90.7,98.0,-1.3,-0.3,1.08,GOOD
1790984863980,1073,2115.0,88.76083267680394,-596.0,90.7,98.0,-1.3,-0.3,1.08,GOOD
1790984863980,1074,2156.0,104.30105974816615,-596.0,90.7,98.0,-1.3,-0.3,1.08,GOOD
1790984863980,1075,2163.0,100.55485648875762,-599.0,90.7,98.0,-1.3,-0.3,1.08,GOOD
1790984863981,1076,2144.0,99.00387814936462,32000.0,90.7,98.0,-1.3,-0.3,1.08,GOOD
1790984863981,1077,2099.0,102.3709404194658,32000.0,90.7,98.0,-1.3,-0.3,1.08,GOOD
1790984863981,1078,2109.0,99.24028901670113,32000.0,90.7,98.0,-1.3,-0.3,1.08,GOOD
1790984863981,1079,2132.0,85.58002986303012,32000.0,90.7,98.0,-1.3,-0.3,1.08,GOOD
1790984863981,1080,2141.0,71.2202775866702,32000.0,90.7,98.0,-1.3,-0.3,1.08,GOOD
1790984863981,1081,2185.0,68.64806613012588,32000.0,90.7,98.0,-1.3,-0.3,1.08,GOOD
1790984863981,1082,2077.0,78.88803380239449,32000.0,90.7,98.0,-1.3,-0.3,1.08,GOOD
1790984863981,1083,2101.0,86.82122023292162,32000.0,90.7,98.0,-1.3,-0.3,1.08,GOOD
1790984863981,1084,2136.0,80.96565288492069,32000.0,90.7,98.0,-1.3,-0.3,1.08,GOOD
1790984863981,1085,2152.0,69.050464817235,32000.0,90.7,98.0,-1.3,-0.3,1.08,GOOD
1790984863981,1086,2399.0,73.3957860884299,32000.0,90.7,98.0,-1.3,-0.3,1.08,GOOD
1790984863981,1087,2367.0,118.93119004671917,32000.0,90.7,98.0,-1.3,-0.3,1.08,GOOD
1790984863981,1088,2363.0,200.70244024873358,32000.0,90.7,98.0,-1.3,-0.3,1.08,GOOD
1790984863981,1089,2418.0,280.5728230636671,32000.0,90.7,98.0,-1.3,-0.3,1.08,GOOD
1790984863981,1090,2452.0,331.57824105275233,32000.0,90.7,98.0,-1.3,-0.3,1.08,GOOD
1790984863981,1091,2402.0,351.53453982591316,32000.0,90.7,98.0,-1.3,-0.3,1.08,GOOD
1790984863981,1092,2393.0,346.2599408231288,32000.0,90.7,98.0,-1.3,-0.3,1.08,GOOD
1790984863981,1093,2392.0,327.19111485865506,32000.0,90.7,98.0,-1.3,-0.3,1.08,GOOD
1790984863981,1094,2431.0,310.0530903998889,32000.0,90.7,98.0,-1.3,-0.3,1.08,GOOD
1790984863981,1095,2454.0,303.8880395628588,32000.0,90.7,98.0,-1.3,-0.3,1.08,GOOD
1790984863981,1096,2413.0,305.23195935383694,32000.0,90.7,98.0,-1.3,-0.3,1.08,GOOD
1790984863981,1097,2301.0,300.7656977176805,32000.0,90.7,98.0,-1.3,-0.3,1.08,GOOD
1790984863981,1098,2313.0,279.03953205381464,32000.0,90.7,98.0,-1.3,-0.3,1.08,GOOD
1790984863981,1099,2302.0,243.27638865611462,32000.0,90.7,98.0,-1.3,-0.3,1.08,GOOD
1790984863981,1100,2162.0,198.7988810908503,32000.0,90.7,98.0,-1.3,-0.3,1.08,GOOD
1790984864253,1101,2080.0,137.19708111707155,-600.0,90.7,98.0,-1.3,-0.3,1.09,GOOD
1790984864253,1102,2034.0,56.704935442278135,-600.0,90.7,98.0,-1.3,-0.3,1.09,GOOD
1790984864253,1103,2021.0,-22.175979353515945,-602.0,90.7,98.0,-1.3,-0.3,1.09,GOOD
1790984864253,1104,2008.0,-79.52488039998943,-600.0,90.7,98.0,-1.3,-0.3,1.09,GOOD
1790984864253,1105,2026.0,-114.19324778357038,-600.0,90.7,98.0,-1.3,-0.3,1.09,GOOD
1790984864253,1106,1987.0,-133.813151649217,-598.0,90.7,98.0,-1.3,-0.3,1.09,GOOD
1790984864253,1107,1968.0,-143.0651768002092,-599.0,90.7,98.0,-1.3,-0.3,1.09,GOOD
1790984864253,1108,1998.0,-143.01705583786298,-596.0,90.7,98.0,-1.3,-0.3,1.09,GOOD
1790984864253,1109,2023.0,-135.1609197626457,-592.0,90.7,98.0,-1.3,-0.3,1.09,GOOD
1790984864253,1110,2024.0,-125.71665429574728,-586.0,90.7,98.0,-1.3,-0.3,1.09,GOOD
1790984864253,1111,2011.0,-121.1642625388254,-582.0,90.7,98.0,-1.3,-0.3,1.09,GOOD
1790984864253,1112,1854.0,-125.2737006367848,-578.0,90.7,98.0,-1.3,-0.3,1.09,GOOD
1790984864253,1113,1852.0,-144.69277332417067,-573.0,90.7,98.0,-1.3,-0.3,1.09,GOOD
1790984864253,1114,1871.0,-181.06587875039824,-568.0,90.7,98.0,-1.3,-0.3,1.09,GOOD
1790984864253,1115,1882.0,-223.02122880114592,-562.0,90.7,98.0,-1.3,-0.3,1.09,GOOD
1790984864253,1116,1901.0,-254.4541527324419,-559.0,90.7,98.0,-1.3,-0.3,1.09,GOOD
1790984864253,1117,1886.0,-261.6932023991875,-553.0,90.7,98.0,-1.3,-0.3,1.09,GOOD
1790984864253,1118,1892.0,-241.97918636844832,-548.0,90.7,98.0,-1.3,-0.3,1.09,GOOD
1790984864253,1119,1866.0,-211.88296149570454,-546.0,90.7,98.0,-1.3,-0.3,1.09,GOOD
1790984864253,1120,1890.0,-196.30852796689027,-542.0,90.7,98.0,-1.3,-0.3,1.09,GOOD
1790984864253,1121,1894.0,-202.90264230818678,-541.0,90.7,98.0,-1.3,-0.3,1.09,GOOD
1790984864253,1122,1911.0,-214.01178078176275,-537.0,90.7,98.0,-1.3,-0.3,1.09,GOOD
1790984864253,1123,1769.0,-214.2934812204639,-533.0,90.7,98.0,-1.3,-0.3,1.09,GOOD
1790984864253,1124,1759.0,-216.6096936531792,-527.0,90.7,98.0,-1.3,-0.3,1.09,GOOD
1790984864253,1125,1812.0,-239.00957006862885,-523.0,90.7,98.0,-1.3,-0.3,1.09,GOOD
1790984864254,1126,1825.0,-271.90400016329,32000.0,90.7,98.0,-1.3,-0.3,1.09,GOOD
1790984864254,1127,1832.0,-290.09416161982307,32000.0,90.7,98.0,-1.3,-0.3,1.09,GOOD
1790984864254,1128,2029.0,-272.34182918700094,32000.0,90.7,98.0,-1.3,-0.3,1.09,GOOD
1790984864254,1129,2030.0,-208.9574283576721,32000.0,90.7,98.0,-1.3,-0.3,1.09,GOOD
1790984864254,1130,2022.0,-121.31702676384883,32000.0,90.7,98.0,-1.3,-0.3,1.09,GOOD
1790984864254,1131,2014.0,-52.633901767101705,32000.0,90.7,98.0,-1.3,-0.3,1.09,GOOD
1790984864254,1132,2011.0,-23.59375264432914,32000.0,90.7,98.0,-1.3,-0.3,1.09,GOOD
1790984864254,1133,1998.0,-22.531031326193492,32000.0,90.7,98.0,-1.3,-0.3,1.09,GOOD
1790984864254,1134,1986.0,-32.9230166148777,32000.0,90.7,98.0,-1.3,-0.3,1.09,GOOD
1790984864254,1135,1939.0,-50.46392565045796,32000.0,90.7,98.0,-1.3,-0.3,1.09,GOOD
1790984864254,1136,1957.0,-75.20595945751778,32000.0,90.7,98.0,-1.3,-0.3,1.09,GOOD
1790984864254,1137,1968.0,-97.44441352105466,32000.0,90.7,98.0,-1.3,-0.3,1.09,GOOD
1790984864254,1138,1962.0,-104.17211371064971,32000.0,90.7,98.0,-1.3,-0.3,1.09,GOOD
1790984864254,1139,1937.0,-97.4222732587863,32000.0,90.7,98.0,-1.3,-0.3,1.09,GOOD
1790984864254,1140,1929.0,-92.38308541484338,32000.0,90.7,98.0,-1.3,-0.3,1.09,GOOD
1790984864254,1141,1955.0,-96.96387252782327,32000.0,90.7,98.0,-1.3,-0.3,1.09,GOOD
1790984864254,1142,2023.0,-100.6768002683537,32000.0,90.7,98.0,-1.3,-0.3,1.09,GOOD
1790984864254,1143,2019.0,-88.0442784983326,32000.0,90.7,98.0,-1.3,-0.3,1.09,GOOD
1790984864254,1144,2004.0,-60.695962666149576,32000.0,90.7,98.0,-1.3,-0.3,1.09,GOOD
1790984864254,1145,1883.0,-40.48114451754402,32000.0,90.7,98.0,-1.3,-0.3,1.09,GOOD
1790984864254,1146,1901.0,-48.66917682667817,32000.0,90.7,98.0,-1.3,-0.3,1.09,GOOD
1790984864254,1147,1893.0,-82.44084956620935,32000.0,90.7,98.0,-1.3,-0.3,1.09,GOOD
1790984864254,1148,1816.0,-123.25387869177783,32000.0,90.7,98.0,-1.3,-0.3,1.09,GOOD
1790984864254,1149,2001.0,-154.23911837005068,32000.0,90.7,98.0,-1.3,-0.3,1.09,GOOD
1790984864254,1150,2019.0,-154.29088672633475,32000.0,90.7,98.0,-1.3,-0.3,1.09,GOOD
1790984864255,1151,2056.0,-112.36329754667119,32000.0,90.7,98.0,-1.3,-0.3,1.09,GOOD
1790984864255,1152,2037.0,-48.07152303839404,32000.0,90.7,98.0,-1.3,-0.3,1.09,GOOD
1790984864255,1153,1979.0,4.241329362709313,32000.0,90.7,98.0,-1.3,-0.3,1.09,GOOD
1790984864255,1154,1969.0,20.5281514797681,32000.0,90.7,98.0,-1.3,-0.3,1.09,GOOD
1790984864255,1155,1962.0,1.1150555159149396,32000.0,90.7,98.0,-1.3,-0.3,1.09,GOOD
1790984864255,1156,2018.0,-31.31382011514814,32000.0,90.7,98.0,-1.3,-0.3,1.09,GOOD
1790984864255,1157,2024.0,-49.993203880777905,32000.0,90.7,98.0,-1.3,-0.3,1.09,GOOD
1790984864255,1158,2006.0,-44.76344327193455,32000.0,90.7,98.0,-1.3,-0.3,1.09,GOOD
1790984864255,1159,1991.0,-26.946815091567043,32000.0,90.7,98.0,-1.3,-0.3,1.09,GOOD
1790984864255,1160,2065.0,-10.586560434340418,32000.0,90.7,98.0,-1.3,-0.3,1.09,GOOD
1790984864255,1161,2048.0,2.5863187635337104,32000.0,90.7,98.0,-1.3,-0.3,1.09,GOOD
1790984864255,1162,1958.0,10.534368010064963,32000.0,90.7,98.0,-1.3,-0.3,1.09,GOOD
1790984864255,1163,1991.0,4.607281059129332,32000.0,90.7,98.0,-1.3,-0.3,1.09,GOOD
1790984864255,1164,2038.0,-10.306530595209608,32000.0,90.7,98.0,-1.3,-0.3,1.09,GOOD
1790984864255,1165,2017.0,-17.485456946653095,32000.0,90.7,98.0,-1.3,-0.3,1.09,GOOD
1790984864255,1166,2034.0,-13.112195076570812,32000.0,90.7,98.0,-1.3,-0.3,1.09,GOOD
1790984864255,1167,2041.0,-4.2636451159943185,32000.0,90.7,98.0,-1.3,-0.3,1.09,GOOD
1790984864255,1168,1938.0,2.062507111968919,32000.0,90.7,98.0,-1.3,-0.3,1.09,GOOD
1790984864255,1169,1911.0,-4.944164282102569,32000.0,90.7,98.0,-1.3,-0.3,1.09,GOOD
1790984864255,1170,1919.0,-31.474444252320954,32000.0,90.7,98.0,-1.3,-0.3,1.09,GOOD
1790984864255,1171,1927.0,-67.43911120519721,32000.0,90.7,98.0,-1.3,-0.3,1.09,GOOD
1790984864255,1172,1943.0,-95.50372194645696,32000.0,90.7,98.0,-1.3,-0.3,1.09,GOOD
1790984864255,1173,1948.0,-103.88672491388462,32000.0,90.7,98.0,-1.3,-0.3,1.09,GOOD
1790984864255,1174,1953.0,-91.69376248386612,32000.0,90.7,98.0,-1.3,-0.3,1.09,GOOD
1790984864255,1175,1968.0,-68.74693946901597,32000.0,90.7,98.0,-1.3,-0.3,1.09,GOOD
1790984864331,1176,1968.0,-48.52789061136648,32000.0,90.4,98.0,-1.3,-0.4,1.09,GOOD
1790984864331,1177,1939.0,-40.17682926782577,32000.0,90.4,98.0,-1.3,-0.4,1.09,GOOD
1790984864331,1178,1923.0,-44.851691112716566,32000.0,90.4,98.0,-1.3,-0.4,1.09,GOOD
1790984864331,1179,1938.0,-55.617813192560604,32000.0,90.4,98.0,-1.3,-0.4,1.09,GOOD
1790984864331,1180,1982.0,-61.705166913311736,32000.0,90.4,98.0,-1.3,-0.4,1.09,GOOD
1790984864331,1181,1987.0,-56.826037537668604,32000.0,90.4,98.0,-1.3,-0.4,1.09,GOOD
1790984864331,1182,2001.0,-43.23174941090284,32000.0,90.4,98.0,-1.3,-0.4,1.09,GOOD
1790984864331,1183,2256.0,-15.832895302290135,32000.0,90.4,98.0,-1.3,-0.4,1.09,GOOD
1790984864331,1184,2339.0,48.01346253990928,32000.0,90.4,98.0,-1.3,-0.4,1.09,GOOD
1790984864331,1185,2362.0,153.32363031223628,32000.0,90.4,98.0,-1.3,-0.4,1.09,GOOD
1790984864331,1186,2393.0,265.9632663100945,32000.0,90.4,98.0,-1.3,-0.4,1.09,GOOD
1790984864331,1187,2957.0,370.9451313068247,32000.0,90.4,98.0,-1.3,-0.4,1.09,GOOD
1790984864331,1188,2959.0,505.8831110600757,32000.0,90.4,98.0,-1.3,-0.4,1.09,GOOD
1790984864331,1189,2977.0,680.5475349645761,32000.0,90.4,98.0,-1.3,-0.4,1.09,GOOD
1790984864331,1190,2979.0,839.5078959061075,32000.0,90.4,98.0,-1.3,-0.4,1.09,GOOD
1790984864331,1191,1763.0,886.8810458875816,32000.0,90.4,98.0,-1.3,-0.4,1.09,GOOD
1790984864331,1192,1766.0,711.0925156717977,32000.0,90.4,98.0,-1.3,-0.4,1.09,GOOD
1790984864331,1193,1719.0,322.99258629521205,32000.0,90.4,98.0,-1.3,-0.4,1.09,GOOD
1790984864331,1194,1687.0,-102.74761700768875,32000.0,90.4,98.0,-1.3,-0.4,1.09,GOOD
1790984864331,1195,2036.0,-389.4440638370196,32000.0,90.4,98.0,-1.3,-0.4,1.09,GOOD
1790984864331,1196,1990.0,-453.1833073201742,32000.0,90.4,98.0,-1.3,-0.4,1.09,GOOD
1790984864331,1197,2055.0,-323.4720499122412,32000.0,90.4,98.0,-1.3,-0.4,1.09,GOOD
1790984864331,1198,1870.0,-130.65159580580587,32000.0,90.4,98.0,-1.3,-0.4,1.09,GOOD
1790984864331,1199,1827.0,-17.560465817769284,32000.0,90.4,98.0,-1.3,-0.4,1.09,GOOD
1790984864331,1200,1838.0,-39.8593545997188,32000.0,90.4,98.0,-1.3,-0.4,1.09,GOOD
1790984864617,1201,1871.0,-138.787524286417,32000.0,90.4,98.0,-1.4,-0.4,1.09,GOOD
1790984864617,1202,2025.0,-210.36370259368607,32000.0,90.4,98.0,-1.4,-0.4,1.09,GOOD
1790984864617,1203,1991.0,-198.16077904654173,32000.0,90.4,98.0,-1.4,-0.4,1.09,GOOD
1790984864617,1204,1966.0,-130.6092358822823,32000.0,90.4,98.0,-1.4,-0.4,1.09,GOOD
1790984864617,1205,1971.0,-73.15456018005591,32000.0,90.4,98.0,-1.4,-0.4,1.09,GOOD
1790984864617,1206,1927.0,-55.471009765386235,32000.0,90.4,98.0,-1.4,-0.4,1.09,GOOD
1790984864617,1207,1935.0,-64.33548737270479,32000.0,90.4,98.0,-1.4,-0.4,1.09,GOOD
1790984864617,1208,1910.0,-80.57772739328327,32000.0,90.4,98.0,-1.4,-0.4,1.09,GOOD
1790984864617,1209,1900.0,-99.6112736253382,32000.0,90.4,98.0,-1.4,-0.4,1.09,GOOD
1790984864617,1210,2051.0,-116.74093844720159,32000.0,90.4,98.0,-1.4,-0.4,1.09,GOOD
1790984864617,1211,2096.0,-108.80237171411065,32000.0,90.4,98.0,-1.4,-0.4,1.09,GOOD
1790984864617,1212,2091.0,-59.86584769472262,32000.0,90.4,98.0,-1.4,-0.4,1.09,GOOD
1790984864617,1213,2061.0,8.127901310257275,32000.0,90.4,98.0,-1.4,-0.4,1.09,GOOD
1790984864617,1214,2003.0,53.45835266071653,32000.0,90.4,98.0,-1.4,-0.4,1.09,GOOD
1790984864617,1215,2013.0,52.95878794648549,32000.0,90.4,98.0,-1.4,-0.4,1.09,GOOD
1790984864617,1216,2045.0,20.45458997322446,32000.0,90.4,98.0,-1.4,-0.4,1.09,GOOD
1790984864617,1217,2038.0,-10.236379635418801,32000.0,90.4,98.0,-1.4,-0.4,1.09,GOOD
1790984864617,1218,2009.0,-20.533777524570645,32000.0,90.4,98.0,-1.4,-0.4,1.09,GOOD
1790984864617,1219,1991.0,-18.215121369572312,32000.0,90.4,98.0,-1.4,-0.4,1.09,GOOD
1790984864617,1220,2004.0,-17.993876804226268,32000.0,90.4,98.0,-1.4,-0.4,1.09,GOOD
1790984864617,1221,2151.0,-18.046652179379812,32000.0,90.4,98.0,-1.4,-0.4,1.09,GOOD
1790984864617,1222,2156.0,-0.4089174563945823,32000.0,90.4,98.0,-1.4,-0.4,1.09,GOOD
1790984864617,1223,2133.0,39.820315912965,32000.0,90.4,98.0,-1.4,-0.4,1.09,GOOD
1790984864617,1224,2101.0,82.12868996130366,32000.0,90.4,98.0,-1.4,-0.4,1.09,GOOD
1790984864617,1225,2206.0,108.52060116768155,32000.0,90.4,98.0,-1.4,-0.4,1.09,GOOD
1790984864619,1226,2241.0,124.33937672548598,32000.0,90.4,98.0,-1.4,-0.4,1.09,GOOD
1790984864619,1227,2256.0,142.1158775783702,32000.0,90.4,98.0,-1.4,-0.4,1.09,GOOD
1790984864619,1228,2314.0,166.3146882122445,32000.0,90.4,98.0,-1.4,-0.4,1.09,GOOD
1790984864619,1229,2231.0,195.57287659226375,32000.0,90.4,98.0,-1.4,-0.4,1.09,GOOD
1790984864619,1230,2235.0,218.97612506038752,32000.0,90.4,98.0,-1.4,-0.4,1.09,GOOD
1790984864619,1231,2324.0,225.55190540492168,32000.0,90.4,98.0,-1.4,-0.4,1.09,GOOD
1790984864619,1232,2301.0,220.9177814165552,32000.0,90.4,98.0,-1.4,-0.4,1.09,GOOD
1790984864619,1233,2286.0,215.639711841497,32000.0,90.4,98.0,-1.4,-0.4,1.09,GOOD
1790984864619,1234,2271.0,213.5442654818217,32000.0,90.4,98.0,-1.4,-0.4,1.09,GOOD
1790984864619,1235,2340.0,217.64781357777971,32000.0,90.4,98.0,-1.4,-0.4,1.09,GOOD
1790984864619,1236,2383.0,230.77981649828493,32000.0,90.4,98.0,-1.4,-0.4,1.09,GOOD
1790984864619,1237,2391.0,249.4268354530408,32000.0,90.4,98.0,-1.4,-0.4,1.09,GOOD
1790984864619,1238,2380.0,266.1101745746475,32000.0,90.4,98.0,-1.4,-0.4,1.09,GOOD
1790984864619,1239,2183.0,271.2131989643634,32000.0,90.4,98.0,-1.4,-0.4,1.09,GOOD
1790984864619,1240,2173.0,249.2422902303102,32000.0,90.4,98.0,-1.4,-0.4,1.09,GOOD
1790984864619,1241,2143.0,193.21624980118983,32000.0,90.4,98.0,-1.4,-0.4,1.09,GOOD
1790984864619,1242,2147.0,117.48668711660933,32000.0,90.4,98.0,-1.4,-0.4,1.09,GOOD
1790984864619,1243,2124.0,47.218158879184685,32000.0,90.4,98.0,-1.4,-0.4,1.09,GOOD
1790984864619,1244,2182.0,7.5288037257107305,32000.0,90.4,98.0,-1.4,-0.4,1.09,GOOD
1790984864619,1245,2164.0,10.999605042850078,32000.0,90.4,98.0,-1.4,-0.4,1.09,GOOD
1790984864619,1246,2162.0,41.34092128266747,32000.0,90.4,98.0,-1.4,-0.4,1.09,GOOD
1790984864619,1247,1970.0,56.919521093660386,32000.0,90.4,98.0,-1.4,-0.4,1.09,GOOD
1790984864619,1248,1947.0,23.118262553042957,32000.0,90.4,98.0,-1.4,-0.4,1.09,GOOD
1790984864619,1249,1950.0,-50.49944237343195,32000.0,90.4,98.0,-1.4,-0.4,1.09,GOOD
1790984864619,1250,1931.0,-121.16289254750149,32000.0,90.4,98.0,-1.4,-0.4,1.09,GOOD
1790984864831,1251,1926.0,-163.5586674849572,32000.0,90.4,98.0,-1.4,-0.2,1.09,GOOD
1790984864831,1252,1929.0,-183.10901834141572,32000.0,90.4,98.0,-1.4,-0.2,1.09,GOOD
1790984864831,1253,1929.0,-189.51042933411884,32000.0,90.4,98.0,-1.4,-0.2,1.09,GOOD
1790984864831,1254,1915.0,-184.70159220636276,32000.0,90.4,98.0,-1.4,-0.2,1.09,GOOD
1790984864831,1255,1880.0,-173.74145573005933,32000.0,90.4,98.0,-1.4,-0.2,1.09,GOOD
1790984864831,1256,1899.0,-169.38664912101257,32000.0,90.4,98.0,-1.4,-0.2,1.09,GOOD
1790984864831,1257,1889.0,-178.61553974469672,32000.0,90.4,98.0,-1.4,-0.2,1.09,GOOD
1790984864831,1258,1875.0,-194.66740815733567,32000.0,90.4,98.0,-1.4,-0.2,1.09,GOOD
1790984864831,1259,1884.0,-205.11469871997218,32000.0,90.4,98.0,-1.4,-0.2,1.09,GOOD
1790984864831,1260,1887.0,-203.01198312903895,32000.0,90.4,98.0,-1.4,-0.2,1.09,GOOD
1790984864831,1261,1898.0,-192.6821795928655,32000.0,90.4,98.0,-1.4,-0.2,1.09,GOOD
1790984864831,1262,1912.0,-183.36788754496132,32000.0,90.4,98.0,-1.4,-0.2,1.09,GOOD
1790984864831,1263,1938.0,-176.18798308332933,32000.0,90.4,98.0,-1.4,-0.2,1.09,GOOD
1790984864831,1264,1927.0,-164.18176265472738,32000.0,90.4,98.0,-1.4,-0.2,1.09,GOOD
1790984864831,1265,1914.0,-146.35377865929496,32000.0,90.4,98.0,-1.4,-0.2,1.09,GOOD
1790984864831,1266,1917.0,-132.33659527358316,32000.0,90.4,98.0,-1.4,-0.2,1.09,GOOD
1790984864831,1267,1802.0,-134.76180959577266,32000.0,90.4,98.0,-1.4,-0.2,1.09,GOOD
1790984864831,1268,1764.0,-162.2740587999735,32000.0,90.4,98.0,-1.4,-0.2,1.09,GOOD
1790984864831,1269,1796.0,-207.43072262211277,32000.0,90.4,98.0,-1.4,-0.2,1.09,GOOD
1790984864831,1270,1815.0,-245.6710195915098,32000.0,90.4,98.0,-1.4,-0.2,1.09,GOOD
1790984864831,1271,1817.0,-259.83196981002476,32000.0,90.4,98.0,-1.4,-0.2,1.09,GOOD
1790984864831,1272,1802.0,-254.13673491599928,32000.0,90.4,98.0,-1.4,-0.2,1.09,GOOD
1790984864831,1273,1810.0,-240.68541912020407,32000.0,90.4,98.0,-1.4,-0.2,1.09,GOOD
1790984864831,1274,1934.0,-221.11246768468504,32000.0,90.4,98.0,-1.4,-0.2,1.09,GOOD
1790984864831,1275,1918.0,-188.4267926849929,32000.0,90.4,98.0,-1.4,-0.2,1.09,GOOD
1790984864832,1276,1942.0,-146.94972181314824,32000.0,90.4,98.0,-1.4,-0.2,1.09,GOOD
1790984864832,1277,1950.0,-110.75961881586169,32000.0,90.4,98.0,-1.4,-0.2,1.09,GOOD
1790984864832,1278,1988.0,-83.45899945497283,32000.0,90.4,98.0,-1.4,-0.2,1.09,GOOD
1790984864832,1279,1956.0,-60.805907823563444,32000.0,90.4,98.0,-1.4,-0.2,1.09,GOOD
1790984864832,1280,1951.0,-46.06486075233407,32000.0,90.4,98.0,-1.4,-0.2,1.09,GOOD
1790984864832,1281,1978.0,-44.56352127968729,32000.0,90.4,98.0,-1.4,-0.2,1.09,GOOD
1790984864832,1282,1974.0,-50.090733908966186,32000.0,90.4,98.0,-1.4,-0.2,1.09,GOOD
1790984864832,1283,1958.0,-52.0395918316393,32000.0,90.4,98.0,-1.4,-0.2,1.09,GOOD
1790984864832,1284,1949.0,-49.16676120220068,32000.0,90.4,98.0,-1.4,-0.2,1.09,GOOD
1790984864832,1285,1922.0,-48.71351527908246,32000.0,90.4,98.0,-1.4,-0.2,1.09,GOOD
1790984864832,1286,2050.0,-52.06222934235353,32000.0,90.4,98.0,-1.4,-0.2,1.09,GOOD
1790984864832,1287,2068.0,-44.978470416071886,32000.0,90.4,98.0,-1.4,-0.2,1.09,GOOD
1790984864832,1288,2065.0,-16.32025740373427,32000.0,90.4,98.0,-1.4,-0.2,1.09,GOOD
1790984864832,1289,1942.0,18.710108000254053,32000.0,90.4,98.0,-1.4,-0.2,1.09,GOOD
1790984864832,1290,1936.0,30.45554270896765,32000.0,90.4,98.0,-1.4,-0.2,1.09,GOOD
1790984864832,1291,1949.0,8.15749552635495,32000.0,90.4,98.0,-1.4,-0.2,1.09,GOOD
1790984864832,1292,1958.0,-30.497157183597604,32000.0,90.4,98.0,-1.4,-0.2,1.09,GOOD
1790984864832,1293,1919.0,-62.94256791382443,32000.0,90.4,98.0,-1.4,-0.2,1.09,GOOD
1790984864832,1294,1884.0,-81.43011428288293,32000.0,90.4,98.0,-1.4,-0.2,1.09,GOOD
1790984864832,1295,1876.0,-90.50081145403321,32000.0,90.4,98.0,-1.4,-0.2,1.09,GOOD
1790984864832,1296,2049.0,-90.46792950994549,32000.0,90.4,98.0,-1.4,-0.2,1.09,GOOD
1790984864832,1297,2039.0,-71.37359155444375,32000.0,90.4,98.0,-1.4,-0.2,1.09,GOOD
1790984864832,1298,2064.0,-32.241968915237734,32000.0,90.4,98.0,-1.4,-0.2,1.09,GOOD
1790984864832,1299,2038.0,12.526771000270049,32000.0,90.4,98.0,-1.4,-0.2,1.09,GOOD
1790984864832,1300,2031.0,48.4810269489018,32000.0,90.4,98.0,-1.4,-0.2,1.09,GOOD
1790984865012,1301,2039.0,66.53082559119852,32000.0,92.4,98.0,-1.4,-0.4,1.08,GOOD
1790984865012,1302,2026.0,62.97776961802467,32000.0,92.4,98.0,-1.4,-0.4,1.08,GOOD
1790984865012,1303,2033.0,43.61222027612268,32000.0,92.4,98.0,-1.4,-0.4,1.08,GOOD
1790984865012,1304,2123.0,27.92881415380843,32000.0,92.4,98.0,-1.4,-0.4,1.08,GOOD
1790984865012,1305,2092.0,37.43708552546459,32000.0,92.4,98.0,-1.4,-0.4,1.08,GOOD
1790984865012,1306,2067.0,67.67484468722147,32000.0,92.4,98.0,-1.4,-0.4,1.08,GOOD
1790984865012,1307,2067.0,90.60637978460034,32000.0,92.4,98.0,-1.4,-0.4,1.08,GOOD
1790984865012,1308,1851.0,81.50169379772231,32000.0,92.4,98.0,-1.4,-0.4,1.08,GOOD
1790984865012,1309,1777.0,27.51714648011221,32000.0,92.4,98.0,-1.4,-0.4,1.08,GOOD
1790984865012,1310,1864.0,-58.405644301999445,32000.0,92.4,98.0,-1.4,-0.4,1.08,GOOD
1790984865012,1311,1884.0,-133.74420034254842,32000.0,92.4,98.0,-1.4,-0.4,1.08,GOOD
1790984865012,1312,1942.0,-165.10506483314475,32000.0,92.4,98.0,-1.4,-0.4,1.08,GOOD
1790984865012,1313,1970.0,-150.05602168876254,32000.0,92.4,98.0,-1.4,-0.4,1.08,GOOD
1790984865012,1314,1957.0,-103.53315542886335,32000.0,92.4,98.0,-1.4,-0.4,1.08,GOOD
1790984865012,1315,1960.0,-48.83149248315021,32000.0,92.4,98.0,-1.4,-0.4,1.08,GOOD
1790984865012,1316,1976.0,-9.931856192431598,32000.0,92.4,98.0,-1.4,-0.4,1.08,GOOD
1790984865012,1317,1954.0,0.8278081772254691,32000.0,92.4,98.0,-1.4,-0.4,1.08,GOOD
1790984865012,1318,1974.0,-10.939319979087031,32000.0,92.4,98.0,-1.4,-0.4,1.08,GOOD
1790984865012,1319,2102.0,-20.2755980296885,32000.0,92.4,98.0,-1.4,-0.4,1.08,GOOD
1790984865012,1320,2091.0,0.30556423454496606,32000.0,92.4,98.0,-1.4,-0.4,1.08,GOOD
1790984865012,1321,2082.0,47.421034762823346,32000.0,92.4,98.0,-1.4,-0.4,1.08,GOOD
1790984865012,1322,2093.0,90.20040369031396,32000.0,92.4,98.0,-1.4,-0.4,1.08,GOOD
1790984865012,1323,1976.0,105.07969176772065,32000.0,92.4,98.0,-1.4,-0.4,1.08,GOOD
1790984865012,1324,1997.0,88.25661220098272,32000.0,92.4,98.0,-1.4,-0.4,1.08,GOOD
1790984865012,1325,1994.0,53.20280719417294,32000.0,92.4,98.0,-1.4,-0.4,1.08,GOOD
1790984865013,1326,2738.0,49.06793497473092,32000.0,92.4,98.0,-1.4,-0.4,1.08,GOOD
1790984865013,1327,2627.0,146.76598143366505,32000.0,92.4,98.0,-1.4,-0.4,1.08,GOOD
1790984865013,1328,2840.0,349.1671083160948,32000.0,92.4,98.0,-1.4,-0.4,1.08,GOOD
1790984865013,1329,2869.0,581.0211837738211,32000.0,92.4,98.0,-1.4,-0.4,1.08,GOOD
1790984865013,1330,2342.0,750.4905826862852,32000.0,92.4,98.0,-1.4,-0.4,1.08,GOOD
1790984865013,1331,2247.0,765.3502791138774,32000.0,92.4,98.0,-1.4,-0.4,1.08,GOOD
1790984865013,1332,2198.0,603.1846383025684,32000.0,92.4,98.0,-1.4,-0.4,1.08,GOOD
1790984865013,1333,2182.0,358.33781154500525,32000.0,92.4,98.0,-1.4,-0.4,1.08,GOOD
1790984865013,1334,1919.0,144.42893006067627,32000.0,92.4,98.0,-1.4,-0.4,1.08,GOOD
1790984865013,1335,1935.0,4.351598650134163,32000.0,92.4,98.0,-1.4,-0.4,1.08,GOOD
1790984865013,1336,1906.0,-72.27066025025192,32000.0,92.4,98.0,-1.4,-0.4,1.08,GOOD
1790984865013,1337,2001.0,-106.42530602524144,32000.0,92.4,98.0,-1.4,-0.4,1.08,GOOD
1790984865013,1338,2006.0,-115.1428810979637,32000.0,92.4,98.0,-1.4,-0.4,1.08,GOOD
1790984865013,1339,2034.0,-105.2184056019898,32000.0,92.4,98.0,-1.4,-0.4,1.08,GOOD
1790984865013,1340,2026.0,-75.87491858470364,32000.0,92.4,98.0,-1.4,-0.4,1.08,GOOD
1790984865013,1341,1924.0,-37.90427926761555,32000.0,92.4,98.0,-1.4,-0.4,1.08,GOOD
1790984865013,1342,1978.0,-19.790788984913757,32000.0,92.4,98.0,-1.4,-0.4,1.08,GOOD
1790984865013,1343,1987.0,-36.35769832350198,32000.0,92.4,98.0,-1.4,-0.4,1.08,GOOD
1790984865013,1344,1977.0,-69.14139555129584,32000.0,92.4,98.0,-1.4,-0.4,1.08,GOOD
1790984865013,1345,2000.0,-88.08926389000325,32000.0,92.4,98.0,-1.4,-0.4,1.08,GOOD
1790984865013,1346,1986.0,-78.64299926685891,32000.0,92.4,98.0,-1.4,-0.4,1.08,GOOD
1790984865013,1347,1927.0,-56.14805054059566,32000.0,92.4,98.0,-1.4,-0.4,1.08,GOOD
1790984865013,1348,1987.0,-49.68888733616644,32000.0,92.4,98.0,-1.4,-0.4,1.08,GOOD
1790984865013,1349,2023.0,-62.385388287325135,32000.0,92.4,98.0,-1.4,-0.4,1.08,GOOD
1790984865013,1350,2008.0,-69.38267729587724,32000.0,92.4,98.0,-1.4,-0.4,1.08,GOOD
1790984865103,1351,1950.0,-57.71489549688668,32000.0,92.4,98.0,-1.3,-0.4,1.08,GOOD
1790984865103,1352,1978.0,-41.82167906479857,32000.0,92.4,98.0,-1.3,-0.4,1.08,GOOD
1790984865103,1353,1990.0,-38.770053159806054,32000.0,92.4,98.0,-1.3,-0.4,1.08,GOOD
1790984865103,1354,1993.0,-48.51398735354775,32000.0,92.4,98.0,-1.3,-0.4,1.08,GOOD
1790984865103,1355,2126.0,-53.221593459737434,32000.0,92.4,98.0,-1.3,-0.4,1.08,GOOD
1790984865103,1356,2104.0,-30.195447134959473,32000.0,92.4,98.0,-1.3,-0.4,1.08,GOOD
1790984865103,1357,2078.0,17.89529707391634,32000.0,92.4,98.0,-1.3,-0.4,1.08,GOOD
1790984865103,1358,2090.0,59.85456004971756,32000.0,92.4,98.0,-1.3,-0.4,1.08,GOOD
1790984865103,1359,1977.0,69.34557283394966,32000.0,92.4,98.0,-1.3,-0.4,1.08,GOOD
1790984865103,1360,2014.0,43.61320153253768,32000.0,92.4,98.0,-1.3,-0.4,1.08,GOOD
1790984865103,1361,2005.0,2.9708048824059166,32000.0,92.4,98.0,-1.3,-0.4,1.08,GOOD
1790984865103,1362,2118.0,-22.601302057754033,32000.0,92.4,98.0,-1.3,-0.4,1.08,GOOD
1790984865103,1363,2181.0,-13.265120417222162,32000.0,92.4,98.0,-1.3,-0.4,1.08,GOOD
1790984865103,1364,2200.0,30.410116456333498,32000.0,92.4,98.0,-1.3,-0.4,1.08,GOOD
1790984865103,1365,2207.0,89.66936294807508,32000.0,92.4,98.0,-1.3,-0.4,1.08,GOOD
1790984865103,1366,2254.0,144.3402239628816,32000.0,92.4,98.0,-1.3,-0.4,1.08,GOOD
1790984865103,1367,2251.0,184.78379767762124,32000.0,92.4,98.0,-1.3,-0.4,1.08,GOOD
1790984865103,1368,2258.0,206.73134924098278,32000.0,92.4,98.0,-1.3,-0.4,1.08,GOOD
1790984865103,1369,2276.0,210.493690411283,32000.0,92.4,98.0,-1.3,-0.4,1.08,GOOD
1790984865103,1370,2284.0,206.32776623081702,32000.0,92.4,98.0,-1.3,-0.4,1.08,GOOD
1790984865103,1371,2316.0,208.11386637327553,32000.0,92.4,98.0,-1.3,-0.4,1.08,GOOD
1790984865103,1372,2296.0,220.01807275501497,32000.0,92.4,98.0,-1.3,-0.4,1.08,GOOD
1790984865103,1373,2310.0,233.04638298134387,32000.0,92.4,98.0,-1.3,-0.4,1.08,GOOD
1790984865103,1374,2442.0,242.53695290797097,32000.0,92.4,98.0,-1.3,-0.4,1.08,GOOD
1790984865103,1375,2439.0,260.5693041258841,32000.0,92.4,98.0,-1.3,-0.4,1.08,GOOD
1790984865185,1376,2412.0,293.1435345013691,32000.0,92.4,98.0,-1.3,-0.4,1.08,GOOD
1790984865185,1377,2397.0,324.4639782017301,32000.0,92.4,98.0,-1.3,-0.4,1.08,GOOD
1790984865185,1378,2367.0,335.6276840173839,32000.0,92.4,98.0,-1.3,-0.4,1.08,GOOD
1790984865185,1379,2384.0,321.64626421298414,32000.0,92.4,98.0,-1.3,-0.4,1.08,GOOD
1790984865185,1380,2374.0,292.4623343390612,32000.0,92.4,98.0,-1.3,-0.4,1.08,GOOD
1790984865185,1381,2347.0,263.2984627318481,32000.0,92.4,98.0,-1.3,-0.4,1.08,GOOD
1790984865185,1382,2097.0,233.22306553067438,32000.0,92.4,98.0,-1.3,-0.4,1.08,GOOD
1790984865185,1383,2095.0,180.88646587495555,32000.0,92.4,98.0,-1.3,-0.4,1.08,GOOD
1790984865185,1384,2054.0,98.61289431324805,32000.0,92.4,98.0,-1.3,-0.4,1.08,GOOD
1790984865185,1385,1949.0,4.014651288117571,32000.0,92.4,98.0,-1.3,-0.4,1.08,GOOD
1790984865185,1386,1957.0,-84.40250389167014,32000.0,92.4,98.0,-1.3,-0.4,1.08,GOOD
1790984865185,1387,1953.0,-149.75845953999448,32000.0,92.4,98.0,-1.3,-0.4,1.08,GOOD
1790984865185,1388,1948.0,-178.67104290648803,32000.0,92.4,98.0,-1.3,-0.4,1.08,GOOD
1790984865185,1389,1985.0,-176.62327309997417,32000.0,92.4,98.0,-1.3,-0.4,1.08,GOOD
1790984865185,1390,1949.0,-163.19857710672625,32000.0,92.4,98.0,-1.3,-0.4,1.08,GOOD
1790984865185,1391,1944.0,-155.34786568036446,32000.0,92.4,98.0,-1.3,-0.4,1.08,GOOD
1790984865185,1392,1925.0,-156.80423809405835,32000.0,92.4,98.0,-1.3,-0.4,1.08,GOOD
1790984865185,1393,1993.0,-158.66111790603657,32000.0,92.4,98.0,-1.3,-0.4,1.08,GOOD
1790984865185,1394,1981.0,-152.11339142712407,32000.0,92.4,98.0,-1.3,-0.4,1.08,GOOD
1790984865185,1395,1965.0,-141.0585975143187,32000.0,92.4,98.0,-1.3,-0.4,1.08,GOOD
1790984865185,1396,1885.0,-138.41598355068908,32000.0,92.4,98.0,-1.3,-0.4,1.08,GOOD
1790984865185,1397,1889.0,-150.4320809470207,32000.0,92.4,98.0,-1.3,-0.4,1.08,GOOD
1790984865185,1398,1880.0,-170.5037922498945,32000.0,92.4,98.0,-1.3,-0.4,1.08,GOOD
1790984865185,1399,1764.0,-194.71791152306128,32000.0,92.4,98.0,-1.3,-0.4,1.08,GOOD
1790984865185,1400,1878.0,-226.81038604865816,32000.0,92.4,98.0,-1.3,-0.4,1.08,GOOD
1790984865376,1401,1915.0,-253.2507485804122,32000.0,92.4,98.0,-1.2,-0.3,1.08,GOOD
1790984865376,1402,1905.0,-249.4317879988563,32000.0,92.4,98.0,-1.2,-0.3,1.08,GOOD
1790984865376,1403,1897.0,-216.55912045436727,32000.0,92.4,98.0,-1.2,-0.3,1.08,GOOD
1790984865376,1404,1833.0,-182.48473221235076,32000.0,92.4,98.0,-1.2,-0.3,1.08,GOOD
1790984865376,1405,1828.0,-173.96121087581992,32000.0,92.4,98.0,-1.2,-0.3,1.08,GOOD
1790984865376,1406,1818.0,-194.59212186707578,32000.0,92.4,98.0,-1.2,-0.3,1.08,GOOD
1790984865376,1407,1816.0,-225.5521962744104,32000.0,92.4,98.0,-1.2,-0.3,1.08,GOOD
1790984865376,1408,1866.0,-244.55883039657866,32000.0,92.4,98.0,-1.2,-0.3,1.08,GOOD
1790984865376,1409,1875.0,-240.3702589381985,32000.0,92.4,98.0,-1.2,-0.3,1.08,GOOD
1790984865376,1410,1886.0,-217.68655898858245,32000.0,92.4,98.0,-1.2,-0.3,1.08,GOOD
1790984865376,1411,1865.0,-191.35639706094446,32000.0,92.4,98.0,-1.2,-0.3,1.08,GOOD
1790984865376,1412,1971.0,-169.19619109192334,32000.0,92.4,98.0,-1.2,-0.3,1.08,GOOD
1790984865376,1413,1969.0,-144.426731016786,32000.0,92.4,98.0,-1.2,-0.3,1.08,GOOD
1790984865376,1414,1972.0,-113.1060062717355,32000.0,92.4,98.0,-1.2,-0.3,1.08,GOOD
1790984865376,1415,1987.0,-84.02621092866966,32000.0,92.4,98.0,-1.2,-0.3,1.08,GOOD
1790984865376,1416,1987.0,-64.2496378469083,32000.0,92.4,98.0,-1.2,-0.3,1.08,GOOD
1790984865376,1417,1979.0,-53.125028150228395,32000.0,92.4,98.0,-1.2,-0.3,1.08,GOOD
1790984865376,1418,1985.0,-48.70519406254489,32000.0,92.4,98.0,-1.2,-0.3,1.08,GOOD
1790984865376,1419,1996.0,-48.655792197068635,32000.0,92.4,98.0,-1.2,-0.3,1.08,GOOD
1790984865376,1420,1963.0,-50.46159566950922,32000.0,92.4,98.0,-1.2,-0.3,1.08,GOOD
1790984865376,1421,1960.0,-54.15623075347254,32000.0,92.4,98.0,-1.2,-0.3,1.08,GOOD
1790984865376,1422,1937.0,-60.77937578389118,32000.0,92.4,98.0,-1.2,-0.3,1.08,GOOD
1790984865376,1423,1959.0,-69.30731389806319,32000.0,92.4,98.0,-1.2,-0.3,1.08,GOOD
1790984865376,1424,1925.0,-77.80605213368906,32000.0,92.4,98.0,-1.2,-0.3,1.08,GOOD
1790984865376,1425,1910.0,-86.79943569293354,32000.0,92.4,98.0,-1.2,-0.3,1.08,GOOD
1790984865455,1426,1899.0,-97.68489989752268,32000.0,92.4,98.0,-1.2,-0.3,1.08,GOOD
1790984865455,1427,1887.0,-109.05653029927828,32000.0,92.4,98.0,-1.2,-0.3,1.08,GOOD
1790984865455,1428,1922.0,-117.657160153353,32000.0,92.4,98.0,-1.2,-0.3,1.08,GOOD
1790984865455,1429,1957.0,-118.54383170408565,32000.0,92.4,98.0,-1.2,-0.3,1.08,GOOD
1790984865455,1430,1947.0,-107.9190191738025,32000.0,92.4,98.0,-1.2,-0.3,1.08,GOOD
1790984865455,1431,1980.0,-88.03170295046651,32000.0,92.4,98.0,-1.2,-0.3,1.08,GOOD
1790984865455,1432,1950.0,-65.38487500820321,32000.0,92.4,98.0,-1.2,-0.3,1.08,GOOD
1790984865455,1433,1945.0,-48.83336964422793,32000.0,92.4,98.0,-1.2,-0.3,1.08,GOOD
1790984865455,1434,1907.0,-46.95182304712287,32000.0,92.4,98.0,-1.2,-0.3,1.08,GOOD
1790984865455,1435,1927.0,-60.21018079629995,32000.0,92.4,98.0,-1.2,-0.3,1.08,GOOD
1790984865455,1436,1915.0,-78.43182559078627,32000.0,92.4,98.0,-1.2,-0.3,1.08,GOOD
1790984865455,1437,1891.0,-91.33662691596544,32000.0,92.4,98.0,-1.2,-0.3,1.08,GOOD
1790984865455,1438,1889.0,-98.36047005184588,32000.0,92.4,98.0,-1.2,-0.3,1.08,GOOD
1790984865455,1439,2016.0,-98.52078953100511,32000.0,92.4,98.0,-1.2,-0.3,1.08,GOOD
1790984865455,1440,2007.0,-82.1917113816067,32000.0,92.4,98.0,-1.2,-0.3,1.08,GOOD
1790984865455,1441,1928.0,-51.59105311870571,32000.0,92.4,98.0,-1.2,-0.3,1.08,GOOD
1790984865455,1442,1960.0,-27.31139581958655,32000.0,92.4,98.0,-1.2,-0.3,1.08,GOOD
