timestamp_ms,sample_seq,ecg_raw,ecg_cleaned,ppg_dc_ir,ecg_bpm,spo2_pct,pitch_deg,roll_deg,motion_g,signal_quality
1790984780455,1,2027.0,79.76526909726083,-135.0,84.8,98.0,-1.3,-0.3,1.08,GOOD
1790984780455,2,2031.0,417.2981457646443,-138.0,84.8,98.0,-1.3,-0.3,1.08,GOOD
1790984780455,3,1914.0,1016.2015017606868,-142.0,84.8,98.0,-1.3,-0.3,1.08,GOOD
1790984780455,4,1902.0,1609.999339160121,-145.0,84.8,98.0,-1.3,-0.3,1.08,GOOD
1790984780455,5,1912.0,1969.7424105815905,-147.0,84.8,98.0,-1.3,-0.3,1.08,GOOD
1790984780455,6,1916.0,2060.0038907693224,-148.0,84.8,98.0,-1.3,-0.3,1.08,GOOD
1790984780455,7,1976.0,1954.9365539941723,-151.0,84.8,98.0,-1.3,-0.3,1.08,GOOD
1790984780455,8,1963.0,1776.8238942190123,-158.0,84.8,98.0,-1.3,-0.3,1.08,GOOD
1790984780455,9,1949.0,1649.9726765346966,-157.0,84.8,98.0,-1.3,-0.3,1.08,GOOD
1790984780455,10,1954.0,1630.5878758394385,-156.0,84.8,98.0,-1.3,-0.3,1.08,GOOD
1790984780455,11,1925.0,1672.276328176441,-155.0,84.8,98.0,-1.3,-0.3,1.08,GOOD
1790984780455,12,1936.0,1681.7341971025107,-155.0,84.8,98.0,-1.3,-0.3,1.08,GOOD
1790984780455,13,1927.0,1620.9464104424978,-152.0,84.8,98.0,-1.3,-0.3,1.08,GOOD
1790984780455,14,1910.0,1538.9218549484917,-151.0,84.8,98.0,-1.3,-0.3,1.08,GOOD
1790984780455,15,1970.0,1499.938549623801,-148.0,84.8,98.0,-1.3,-0.3,1.08,GOOD
1790984780455,16,2000.0,1508.414806364924,-143.0,84.8,98.0,-1.3,-0.3,1.08,GOOD
1790984780455,17,1991.0,1514.941285063895,-140.0,84.8,98.0,-1.3,-0.3,1.08,GOOD
1790984780455,18,1983.0,1484.5748348433317,-137.0,84.8,98.0,-1.3,-0.3,1.08,GOOD
1790984780455,19,1920.0,1436.711742844175,-137.0,84.8,98.0,-1.3,-0.3,1.08,GOOD
1790984780455,20,1897.0,1404.5910801995929,-133.0,84.8,98.0,-1.3,-0.3,1.08,GOOD
1790984780455,21,1895.0,1382.2497688628541,-131.0,84.8,98.0,-1.3,-0.3,1.08,GOOD
1790984780455,22,1893.0,1336.9615181697818,-129.0,84.8,98.0,-1.3,-0.3,1.08,GOOD
1790984780455,23,1931.0,1263.5389352387165,-126.0,84.8,98.0,-1.3,-0.3,1.08,GOOD
1790984780455,24,1937.0,1202.2315834707997,-118.0,84.8,98.0,-1.3,-0.3,1.08,GOOD
1790984780455,25,1933.0,1189.646635456861,-116.0,84.8,98.0,-1.3,-0.3,1.08,GOOD
1790984780456,26,1997.0,1211.5095587706173,32000.0,84.8,98.0,-1.3,-0.3,1.08,GOOD
1790984780456,27,1987.0,1223.2332381788092,32000.0,84.8,98.0,-1.3,-0.3,1.08,GOOD
1790984780456,28,1993.0,1202.075782132274,32000.0,84.8,98.0,-1.3,-0.3,1.08,GOOD
1790984780456,29,1979.0,1166.4578564501605,32000.0,84.8,98.0,-1.3,-0.3,1.08,GOOD
1790984780456,30,1931.0,1143.4784333924767,32000.0,84.8,98.0,-1.3,-0.3,1.08,GOOD
1790984780456,31,2041.0,1132.4636570248026,32000.0,84.8,98.0,-1.3,-0.3,1.08,GOOD
1790984780456,32,2040.0,1116.5769284358012,32000.0,84.8,98.0,-1.3,-0.3,1.08,GOOD
1790984780456,33,2026.0,1089.928650803422,32000.0,84.8,98.0,-1.3,-0.3,1.08,GOOD
1790984780456,34,2037.0,1063.9939817901864,32000.0,84.8,98.0,-1.3,-0.3,1.08,GOOD
1790984780456,35,2033.0,1054.1702410161288,32000.0,84.8,98.0,-1.3,-0.3,1.08,GOOD
1790984780456,36,2041.0,1055.1345492553396,32000.0,84.8,98.0,-1.3,-0.3,1.08,GOOD
1790984780456,37,2028.0,1041.7913279888007,32000.0,84.8,98.0,-1.3,-0.3,1.08,GOOD
1790984780456,38,1997.0,1000.890063493106,32000.0,84.8,98.0,-1.3,-0.3,1.08,GOOD
1790984780456,39,2008.0,948.5416909333305,32000.0,84.8,98.0,-1.3,-0.3,1.08,GOOD
1790984780456,40,1995.0,910.6092246652196,32000.0,84.8,98.0,-1.3,-0.3,1.08,GOOD
1790984780456,41,2000.0,890.836001802052,32000.0,84.8,98.0,-1.3,-0.3,1.08,GOOD
1790984780456,42,2013.0,870.8301350712438,32000.0,84.8,98.0,-1.3,-0.3,1.08,GOOD
1790984780456,43,1999.0,839.3998838622647,32000.0,84.8,98.0,-1.3,-0.3,1.08,GOOD
1790984780456,44,2000.0,805.8059383399236,32000.0,84.8,98.0,-1.3,-0.3,1.08,GOOD
1790984780456,45,1985.0,783.1849241674947,32000.0,84.8,98.0,-1.3,-0.3,1.08,GOOD
1790984780456,46,1985.0,768.8125598354975,32000.0,84.8,98.0,-1.3,-0.3,1.08,GOOD
1790984780456,47,1999.0,748.4138169980316,32000.0,84.8,98.0,-1.3,-0.3,1.08,GOOD
1790984780456,48,1997.0,717.1697696112581,32000.0,84.8,98.0,-1.3,-0.3,1.08,GOOD
1790984780456,49,1993.0,685.6401034124731,32000.0,84.8,98.0,-1.3,-0.3,1.08,GOOD
1790984780456,50,2040.0,666.7833518581275,32000.0,84.8,98.0,-1.3,-0.3,1.08,GOOD
1790984780584,51,2027.0,662.2817862850986,32000.0,85.6,98.0,-1.3,-0.3,1.08,GOOD
1790984780584,52,2020.0,659.1721531636259,32000.0,85.6,98.0,-1.3,-0.3,1.08,GOOD
1790984780584,53,2016.0,643.932470001615,32000.0,85.6,98.0,-1.3,-0.3,1.08,GOOD
1790984780584,54,1969.0,616.3753711089444,32000.0,85.6,98.0,-1.3,-0.3,1.08,GOOD
1790984780584,55,2080.0,587.4787035260447,32000.0,85.6,98.0,-1.3,-0.3,1.08,GOOD
1790984780584,56,2078.0,571.1409345830784,32000.0,85.6,98.0,-1.3,-0.3,1.08,GOOD
1790984780584,57,1901.0,562.6761533386948,32000.0,85.6,98.0,-1.3,-0.3,1.08,GOOD
1790984780584,58,1900.0,534.5846626185047,32000.0,85.6,98.0,-1.3,-0.3,1.08,GOOD
1790984780584,59,1884.0,476.8370084750759,32000.0,85.6,98.0,-1.3,-0.3,1.08,GOOD
1790984780584,60,1867.0,409.3136494931233,32000.0,85.6,98.0,-1.3,-0.3,1.08,GOOD
1790984780584,61,2065.0,358.0914650913423,32000.0,85.6,98.0,-1.3,-0.3,1.08,GOOD
1790984780584,62,2037.0,345.64030861083984,32000.0,85.6,98.0,-1.3,-0.3,1.08,GOOD
1790984780584,63,2040.0,373.08114702911536,32000.0,85.6,98.0,-1.3,-0.3,1.08,GOOD
1790984780584,64,2048.0,414.23429982326763,32000.0,85.6,98.0,-1.3,-0.3,1.08,GOOD
1790984780584,65,1866.0,434.62810619668295,32000.0,85.6,98.0,-1.3,-0.3,1.08,GOOD
1790984780584,66,1861.0,404.70370212733155,32000.0,85.6,98.0,-1.3,-0.3,1.08,GOOD
1790984780584,67,1867.0,325.50380539252717,32000.0,85.6,98.0,-1.3,-0.3,1.08,GOOD
1790984780584,68,1875.0,236.63964593592206,32000.0,85.6,98.0,-1.3,-0.3,1.08,GOOD
1790984780584,69,2035.0,183.17465260211364,32000.0,85.6,98.0,-1.3,-0.3,1.08,GOOD
1790984780584,70,2076.0,188.95393037205372,32000.0,85.6,98.0,-1.3,-0.3,1.08,GOOD
1790984780584,71,2076.0,242.67018653720197,32000.0,85.6,98.0,-1.3,-0.3,1.08,GOOD
1790984780584,72,2082.0,305.2532505430191,32000.0,85.6,98.0,-1.3,-0.3,1.08,GOOD
1790984780584,73,2084.0,344.255208345611,32000.0,85.6,98.0,-1.3,-0.3,1.08,GOOD
1790984780584,74,2076.0,350.9326102552036,32000.0,85.6,98.0,-1.3,-0.3,1.08,GOOD
1790984780584,75,2058.0,330.69675470819766,32000.0,85.6,98.0,-1.3,-0.3,1.08,GOOD
1790984780585,76,2029.0,293.72549492224175,32000.0,85.6,98.0,-1.3,-0.3,1.08,GOOD
1790984780585,77,1899.0,247.41856561699453,32000.0,85.6,98.0,-1.3,-0.3,1.08,GOOD
1790984780585,78,1930.0,193.0965279325558,32000.0,85.6,98.0,-1.3,-0.3,1.08,GOOD
1790984780585,79,1932.0,136.54047628972364,32000.0,85.6,98.0,-1.3,-0.3,1.08,GOOD
1790984780585,80,1929.0,88.92175839771978,32000.0,85.6,98.0,-1.3,-0.3,1.08,GOOD
1790984780585,81,2089.0,62.126548809154336,32000.0,85.6,98.0,-1.3,-0.3,1.08,GOOD
1790984780585,82,2095.0,71.75247582622748,32000.0,85.6,98.0,-1.3,-0.3,1.08,GOOD
1790984780585,83,2105.0,117.76078610009357,32000.0,85.6,98.0,-1.3,-0.3,1.08,GOOD
1790984780585,84,2102.0,171.09413339663215,32000.0,85.6,98.0,-1.3,-0.3,1.08,GOOD
1790984780585,85,1959.0,194.2944882759172,32000.0,85.6,98.0,-1.3,-0.3,1.08,GOOD
1790984780585,86,1961.0,165.900112675768,32000.0,85.6,98.0,-1.3,-0.3,1.08,GOOD
1790984780585,87,1934.0,98.04415871387893,32000.0,85.6,98.0,-1.3,-0.3,1.08,GOOD
1790984780585,88,1940.0,26.002603057080144,32000.0,85.6,98.0,-1.3,-0.3,1.08,GOOD
1790984780585,89,2074.0,-20.131844590581068,32000.0,85.6,98.0,-1.3,-0.3,1.08,GOOD
1790984780585,90,2043.0,-26.83900589136551,32000.0,85.6,98.0,-1.3,-0.3,1.08,GOOD
1790984780585,91,2014.0,-4.782163704804945,32000.0,85.6,98.0,-1.3,-0.3,1.08,GOOD
1790984780585,92,2007.0,18.962605376651126,32000.0,85.6,98.0,-1.3,-0.3,1.08,GOOD
1790984780585,93,2525.0,46.7113697830686,32000.0,85.6,98.0,-1.3,-0.3,1.08,GOOD
1790984780585,94,2549.0,121.61569360714299,32000.0,85.6,98.0,-1.3,-0.3,1.08,GOOD
1790984780585,95,2579.0,253.69091495481982,32000.0,85.6,98.0,-1.3,-0.3,1.08,GOOD
1790984780585,96,2633.0,394.28296415788566,32000.0,85.6,98.0,-1.3,-0.3,1.08,GOOD
1790984780585,97,2898.0,511.6105496643395,32000.0,85.6,98.0,-1.3,-0.3,1.08,GOOD
1790984780585,98,2863.0,612.3099340945738,32000.0,85.6,98.0,-1.3,-0.3,1.08,GOOD
1790984780585,99,2848.0,687.0287327828851,32000.0,85.6,98.0,-1.3,-0.3,1.08,GOOD
1790984780585,100,2864.0,711.8315184967399,32000.0,85.6,98.0,-1.3,-0.3,1.08,GOOD
1790984781116,101,1801.0,654.671450675527,-55.0,85.6,98.0,-1.2,-0.6,1.09,GOOD
1790984781116,102,1781.0,454.59105545156547,-54.0,85.6,98.0,-1.2,-0.6,1.09,GOOD
1790984781116,103,1725.0,115.5486105752329,-52.0,85.6,98.0,-1.2,-0.6,1.09,GOOD
1790984781116,104,1679.0,-246.83971902325405,-49.0,85.6,98.0,-1.2,-0.6,1.09,GOOD
1790984781116,105,2007.0,-507.9316468827318,-47.0,85.6,98.0,-1.2,-0.6,1.09,GOOD
1790984781116,106,2074.0,-586.4324066020697,-49.0,85.6,98.0,-1.2,-0.6,1.09,GOOD
1790984781116,107,2100.0,-476.2474528478325,-49.0,85.6,98.0,-1.2,-0.6,1.09,GOOD
1790984781116,108,2075.0,-276.93668021160204,-45.0,85.6,98.0,-1.2,-0.6,1.09,GOOD
1790984781116,109,1977.0,-129.08925648004657,-45.0,85.6,98.0,-1.2,-0.6,1.09,GOOD
1790984781116,110,1991.0,-110.86313399416548,-51.0,85.6,98.0,-1.2,-0.6,1.09,GOOD
1790984781116,111,2031.0,-187.92843977040812,-48.0,85.6,98.0,-1.2,-0.6,1.09,GOOD
1790984781116,112,2026.0,-264.46495942713557,-48.0,85.6,98.0,-1.2,-0.6,1.09,GOOD
1790984781116,113,2092.0,-282.9345214850687,-45.0,85.6,98.0,-1.2,-0.6,1.09,GOOD
1790984781116,114,2050.0,-259.4589189259113,-45.0,85.6,98.0,-1.2,-0.6,1.09,GOOD
1790984781116,115,2045.0,-240.64628414745385,-46.0,85.6,98.0,-1.2,-0.6,1.09,GOOD
1790984781116,116,2095.0,-244.15144062571713,-45.0,85.6,98.0,-1.2,-0.6,1.09,GOOD
1790984781116,117,2109.0,-246.8261887653013,-50.0,85.6,98.0,-1.2,-0.6,1.09,GOOD
1790984781116,118,2069.0,-232.15909281819904,-49.0,85.6,98.0,-1.2,-0.6,1.09,GOOD
1790984781116,119,2032.0,-221.25338582474825,-45.0,85.6,98.0,-1.2,-0.6,1.09,GOOD
1790984781116,120,2048.0,-239.548694297014,-45.0,85.6,98.0,-1.2,-0.6,1.09,GOOD
1790984781116,121,2029.0,-278.12065876486065,-46.0,85.6,98.0,-1.2,-0.6,1.09,GOOD
1790984781116,122,2039.0,-307.6095176452974,-45.0,85.6,98.0,-1.2,-0.6,1.09,GOOD
1790984781116,123,2018.0,-315.7661942561821,-43.0,85.6,98.0,-1.2,-0.6,1.09,GOOD
1790984781116,124,2010.0,-317.14153863406887,-40.0,85.6,98.0,-1.2,-0.6,1.09,GOOD
1790984781116,125,1792.0,-338.01941165457754,-39.0,85.6,98.0,-1.2,-0.6,1.09,GOOD
1790984781117,126,1871.0,-392.0282088694604,32000.0,85.6,98.0,-1.2,-0.6,1.09,GOOD
1790984781117,127,1863.0,-457.75706805102664,32000.0,85.6,98.0,-1.2,-0.6,1.09,GOOD
1790984781117,128,1863.0,-502.0483820132026,32000.0,85.6,98.0,-1.2,-0.6,1.09,GOOD
1790984781117,129,2050.0,-513.0100647992674,32000.0,85.6,98.0,-1.2,-0.6,1.09,GOOD
1790984781117,130,2045.0,-487.80950390280844,32000.0,85.6,98.0,-1.2,-0.6,1.09,GOOD
1790984781117,131,2017.0,-432.6305512962254,32000.0,85.6,98.0,-1.2,-0.6,1.09,GOOD
1790984781117,132,2002.0,-374.0185348830598,32000.0,85.6,98.0,-1.2,-0.6,1.09,GOOD
1790984781117,133,2013.0,-339.4254026314965,32000.0,85.6,98.0,-1.2,-0.6,1.09,GOOD
1790984781117,134,2017.0,-338.4292241841974,32000.0,85.6,98.0,-1.2,-0.6,1.09,GOOD
1790984781117,135,2015.0,-361.6757959175901,32000.0,85.6,98.0,-1.2,-0.6,1.09,GOOD
1790984781117,136,1991.0,-388.88361644074996,32000.0,85.6,98.0,-1.2,-0.6,1.09,GOOD
1790984781117,137,1951.0,-405.25975348903995,32000.0,85.6,98.0,-1.2,-0.6,1.09,GOOD
1790984781117,138,1966.0,-412.7220323311902,32000.0,85.6,98.0,-1.2,-0.6,1.09,GOOD
1790984781117,139,1982.0,-421.1832834403056,32000.0,85.6,98.0,-1.2,-0.6,1.09,GOOD
1790984781117,140,1970.0,-434.2743717215458,32000.0,85.6,98.0,-1.2,-0.6,1.09,GOOD
1790984781117,141,1983.0,-446.17523594369516,32000.0,85.6,98.0,-1.2,-0.6,1.09,GOOD
1790984781117,142,1974.0,-448.0504253625541,32000.0,85.6,98.0,-1.2,-0.6,1.09,GOOD
1790984781117,143,1981.0,-439.5444893724569,32000.0,85.6,98.0,-1.2,-0.6,1.09,GOOD
1790984781117,144,1990.0,-431.0415090677181,32000.0,85.6,98.0,-1.2,-0.6,1.09,GOOD
1790984781117,145,1845.0,-436.7582456278594,32000.0,85.6,98.0,-1.2,-0.6,1.09,GOOD
1790984781117,146,1849.0,-466.5326446639373,32000.0,85.6,98.0,-1.2,-0.6,1.09,GOOD
1790984781117,147,1844.0,-511.88215332234614,32000.0,85.6,98.0,-1.2,-0.6,1.09,GOOD
1790984781117,148,1850.0,-551.3424626066642,32000.0,85.6,98.0,-1.2,-0.6,1.09,GOOD
1790984781117,149,2094.0,-565.089954405784,32000.0,85.6,98.0,-1.2,-0.6,1.09,GOOD
1790984781117,150,2061.0,-535.9887877166993,32000.0,85.6,98.0,-1.2,-0.6,1.09,GOOD
1790984781118,151,2054.0,-469.1601346684427,32000.0,85.6,98.0,-1.2,-0.6,1.09,GOOD
1790984781118,152,2041.0,-397.99287846945333,32000.0,85.6,98.0,-1.2,-0.6,1.09,GOOD
1790984781118,153,2172.0,-347.63871188758964,32000.0,85.6,98.0,-1.2,-0.6,1.09,GOOD
1790984781118,154,2185.0,-316.73940619301175,32000.0,85.6,98.0,-1.2,-0.6,1.09,GOOD
1790984781118,155,2211.0,-295.39986143925773,32000.0,85.6,98.0,-1.2,-0.6,1.09,GOOD
1790984781118,156,2214.0,-276.5918069098508,32000.0,85.6,98.0,-1.2,-0.6,1.09,GOOD
1790984781118,157,1922.0,-266.05411310019304,32000.0,85.6,98.0,-1.2,-0.6,1.09,GOOD
1790984781118,158,1926.0,-291.55372965658376,32000.0,85.6,98.0,-1.2,-0.6,1.09,GOOD
1790984781118,159,1914.0,-366.87124450980434,32000.0,85.6,98.0,-1.2,-0.6,1.09,GOOD
1790984781118,160,1904.0,-464.52278768504914,32000.0,85.6,98.0,-1.2,-0.6,1.09,GOOD
1790984781118,161,2004.0,-540.4799922137568,32000.0,85.6,98.0,-1.2,-0.6,1.09,GOOD
1790984781118,162,2003.0,-560.4149997831046,32000.0,85.6,98.0,-1.2,-0.6,1.09,GOOD
1790984781118,163,2019.0,-522.4325656947526,32000.0,85.6,98.0,-1.2,-0.6,1.09,GOOD
1790984781118,164,2008.0,-462.629196306528,32000.0,85.6,98.0,-1.2,-0.6,1.09,GOOD
1790984781118,165,2022.0,-422.5851306002475,32000.0,85.6,98.0,-1.2,-0.6,1.09,GOOD
1790984781118,166,2004.0,-416.5120563385798,32000.0,85.6,98.0,-1.2,-0.6,1.09,GOOD
1790984781118,167,2002.0,-430.0765216926239,32000.0,85.6,98.0,-1.2,-0.6,1.09,GOOD
1790984781118,168,2004.0,-442.25557690743443,32000.0,85.6,98.0,-1.2,-0.6,1.09,GOOD
1790984781118,169,2036.0,-443.78840508619265,32000.0,85.6,98.0,-1.2,-0.6,1.09,GOOD
1790984781118,170,2014.0,-439.22473777466166,32000.0,85.6,98.0,-1.2,-0.6,1.09,GOOD
1790984781118,171,2005.0,-437.64879024881355,32000.0,85.6,98.0,-1.2,-0.6,1.09,GOOD
1790984781118,172,1984.0,-441.7898969972748,32000.0,85.6,98.0,-1.2,-0.6,1.09,GOOD
1790984781118,173,2000.0,-446.7232424445099,32000.0,85.6,98.0,-1.2,-0.6,1.09,GOOD
1790984781118,174,1995.0,-448.8115777870515,32000.0,85.6,98.0,-1.2,-0.6,1.09,GOOD
1790984781118,175,1999.0,-450.97266198659815,32000.0,85.6,98.0,-1.2,-0.6,1.09,GOOD
1790984781255,176,2004.0,-455.9819373100587,32000.0,85.6,98.0,-1.3,-0.4,1.08,GOOD
1790984781255,177,2017.0,-458.9043289836019,32000.0,85.6,98.0,-1.3,-0.4,1.08,GOOD
1790984781255,178,2026.0,-452.4176276434582,32000.0,85.6,98.0,-1.3,-0.4,1.08,GOOD
1790984781255,179,2009.0,-438.45941913576144,32000.0,85.6,98.0,-1.3,-0.4,1.08,GOOD
1790984781255,180,2002.0,-428.7555643004624,32000.0,85.6,98.0,-1.3,-0.4,1.08,GOOD
1790984781255,181,1995.0,-431.556787956992,32000.0,85.6,98.0,-1.3,-0.4,1.08,GOOD
1790984781255,182,2017.0,-441.6861431916401,32000.0,85.6,98.0,-1.3,-0.4,1.08,GOOD
1790984781255,183,2027.0,-446.581280326506,32000.0,85.6,98.0,-1.3,-0.4,1.08,GOOD
1790984781255,184,2015.0,-440.9667937603541,32000.0,85.6,98.0,-1.3,-0.4,1.08,GOOD
1790984781255,185,1974.0,-433.41224146781565,32000.0,85.6,98.0,-1.3,-0.4,1.08,GOOD
1790984781255,186,1973.0,-435.92665100367867,32000.0,85.6,98.0,-1.3,-0.4,1.08,GOOD
1790984781255,187,1969.0,-449.3503705277207,32000.0,85.6,98.0,-1.3,-0.4,1.08,GOOD
1790984781255,188,1970.0,-464.41408135364674,32000.0,85.6,98.0,-1.3,-0.4,1.08,GOOD
1790984781255,189,2119.0,-467.72438476273715,32000.0,85.6,98.0,-1.3,-0.4,1.08,GOOD
1790984781255,190,2100.0,-446.00356618523483,32000.0,85.6,98.0,-1.3,-0.4,1.08,GOOD
1790984781255,191,2124.0,-401.93703815403234,32000.0,85.6,98.0,-1.3,-0.4,1.08,GOOD
1790984781255,192,2120.0,-355.0973376857059,32000.0,85.6,98.0,-1.3,-0.4,1.08,GOOD
1790984781255,193,1929.0,-329.2261560597145,32000.0,85.6,98.0,-1.3,-0.4,1.08,GOOD
1790984781255,194,1925.0,-346.6572320952613,32000.0,85.6,98.0,-1.3,-0.4,1.08,GOOD
1790984781255,195,1908.0,-406.7278004627507,32000.0,85.6,98.0,-1.3,-0.4,1.08,GOOD
1790984781255,196,1920.0,-478.31224432358385,32000.0,85.6,98.0,-1.3,-0.4,1.08,GOOD
1790984781255,197,2033.0,-524.5316538789609,32000.0,85.6,98.0,-1.3,-0.4,1.08,GOOD
1790984781255,198,2032.0,-522.5737559943368,32000.0,85.6,98.0,-1.3,-0.4,1.08,GOOD
1790984781255,199,2020.0,-478.7419601888087,32000.0,85.6,98.0,-1.3,-0.4,1.08,GOOD
1790984781255,200,1993.0,-426.3927473676215,32000.0,85.6,98.0,-1.3,-0.4,1.08,GOOD
1790984781328,201,2034.0,-395.4021392200726,32000.0,86.5,98.0,-1.3,-0.4,1.08,GOOD
1790984781328,202,2063.0,-388.8926008145238,32000.0,86.5,98.0,-1.3,-0.4,1.08,GOOD
1790984781328,203,2066.0,-390.66139347259264,32000.0,86.5,98.0,-1.3,-0.4,1.08,GOOD
1790984781328,204,2079.0,-385.7911759442861,32000.0,86.5,98.0,-1.3,-0.4,1.08,GOOD
1790984781328,205,1949.0,-375.5476364237313,32000.0,86.5,98.0,-1.3,-0.4,1.08,GOOD
1790984781328,206,1967.0,-377.30824959350883,32000.0,86.5,98.0,-1.3,-0.4,1.08,GOOD
1790984781328,207,1977.0,-400.55076497419145,32000.0,86.5,98.0,-1.3,-0.4,1.08,GOOD
1790984781328,208,1989.0,-431.9891445191402,32000.0,86.5,98.0,-1.3,-0.4,1.08,GOOD
1790984781328,209,1930.0,-454.49352303476275,32000.0,86.5,98.0,-1.3,-0.4,1.08,GOOD
1790984781328,210,1935.0,-464.0298046389656,32000.0,86.5,98.0,-1.3,-0.4,1.08,GOOD
1790984781328,211,1950.0,-464.55901436891486,32000.0,86.5,98.0,-1.3,-0.4,1.08,GOOD
1790984781328,212,1961.0,-460.8127120150402,32000.0,86.5,98.0,-1.3,-0.4,1.08,GOOD
1790984781328,213,2758.0,-426.12632243945706,32000.0,86.5,98.0,-1.3,-0.4,1.08,GOOD
1790984781328,214,2757.0,-291.39269069390957,32000.0,86.5,98.0,-1.3,-0.4,1.08,GOOD
1790984781328,215,2794.0,-47.407967736473154,32000.0,86.5,98.0,-1.3,-0.4,1.08,GOOD
1790984781328,216,2822.0,211.70965710298717,32000.0,86.5,98.0,-1.3,-0.4,1.08,GOOD
1790984781328,217,2685.0,387.4927437360558,32000.0,86.5,98.0,-1.3,-0.4,1.08,GOOD
1790984781328,218,2609.0,432.8081913421638,32000.0,86.5,98.0,-1.3,-0.4,1.08,GOOD
1790984781328,219,2553.0,354.7094830579988,32000.0,86.5,98.0,-1.3,-0.4,1.08,GOOD
1790984781328,220,2537.0,215.21381493228813,32000.0,86.5,98.0,-1.3,-0.4,1.08,GOOD
1790984781328,221,1803.0,65.45843329318555,32000.0,86.5,98.0,-1.3,-0.4,1.08,GOOD
1790984781328,222,1817.0,-113.8330818703414,32000.0,86.5,98.0,-1.3,-0.4,1.08,GOOD
1790984781328,223,1774.0,-336.8799095632014,32000.0,86.5,98.0,-1.3,-0.4,1.08,GOOD
1790984781328,224,1731.0,-554.7527962717782,32000.0,86.5,98.0,-1.3,-0.4,1.08,GOOD
1790984781328,225,2039.0,-701.9209727418767,32000.0,86.5,98.0,-1.3,-0.4,1.08,GOOD
1790984781537,226,2012.0,-726.3652887918998,32000.0,86.5,98.0,-1.3,-0.3,1.08,GOOD
1790984781537,227,2117.0,-625.5751844516178,32000.0,86.5,98.0,-1.3,-0.3,1.08,GOOD
1790984781537,228,2078.0,-468.9869401866901,32000.0,86.5,98.0,-1.3,-0.3,1.08,GOOD
1790984781537,229,1980.0,-351.4849733441702,32000.0,86.5,98.0,-1.3,-0.3,1.08,GOOD
1790984781537,230,1995.0,-328.33531290853705,32000.0,86.5,98.0,-1.3,-0.3,1.08,GOOD
1790984781537,231,2036.0,-375.54814722880997,32000.0,86.5,98.0,-1.3,-0.3,1.08,GOOD
1790984781537,232,2025.0,-423.53470980385464,32000.0,86.5,98.0,-1.3,-0.3,1.08,GOOD
1790984781537,233,2019.0,-434.1556263837561,32000.0,86.5,98.0,-1.3,-0.3,1.08,GOOD
1790984781537,234,1998.0,-422.4882831512845,32000.0,86.5,98.0,-1.3,-0.3,1.08,GOOD
1790984781537,235,2015.0,-416.12706936730285,32000.0,86.5,98.0,-1.3,-0.3,1.08,GOOD
1790984781537,236,2041.0,-417.96636928187246,32000.0,86.5,98.0,-1.3,-0.3,1.08,GOOD
1790984781537,237,2115.0,-409.38760370740005,32000.0,86.5,98.0,-1.3,-0.3,1.08,GOOD
1790984781537,238,2074.0,-380.42350979045807,32000.0,86.5,98.0,-1.3,-0.3,1.08,GOOD
1790984781537,239,2057.0,-347.9260211952169,32000.0,86.5,98.0,-1.3,-0.3,1.08,GOOD
1790984781537,240,2063.0,-334.3965041181921,32000.0,86.5,98.0,-1.3,-0.3,1.08,GOOD
1790984781537,241,2046.0,-339.9767698694877,32000.0,86.5,98.0,-1.3,-0.3,1.08,GOOD
1790984781537,242,2051.0,-349.9450655369503,32000.0,86.5,98.0,-1.3,-0.3,1.08,GOOD
1790984781537,243,2019.0,-356.6795874630675,32000.0,86.5,98.0,-1.3,-0.3,1.08,GOOD
1790984781537,244,2001.0,-364.6551080667815,32000.0,86.5,98.0,-1.3,-0.3,1.08,GOOD
1790984781537,245,2010.0,-378.183458558044,32000.0,86.5,98.0,-1.3,-0.3,1.08,GOOD
1790984781537,246,2048.0,-389.79201667078553,32000.0,86.5,98.0,-1.3,-0.3,1.08,GOOD
1790984781537,247,2051.0,-387.59951999135785,32000.0,86.5,98.0,-1.3,-0.3,1.08,GOOD
1790984781537,248,2031.0,-372.1541078000327,32000.0,86.5,98.0,-1.3,-0.3,1.08,GOOD
1790984781537,249,2138.0,-352.2148344392387,32000.0,86.5,98.0,-1.3,-0.3,1.08,GOOD
1790984781537,250,2035.0,-331.5451652736118,32000.0,86.5,98.0,-1.3,-0.3,1.08,GOOD
1790984781538,251,2191.0,-310.8596842737105,32000.0,86.5,98.0,-1.3,-0.3,1.08,GOOD
1790984781538,252,2184.0,-285.37504214768126,32000.0,86.5,98.0,-1.3,-0.3,1.08,GOOD
1790984781538,253,2181.0,-251.40716670349158,32000.0,86.5,98.0,-1.3,-0.3,1.08,GOOD
1790984781538,254,2157.0,-220.1704127793151,32000.0,86.5,98.0,-1.3,-0.3,1.08,GOOD
1790984781538,255,2177.0,-203.75484046626724,32000.0,86.5,98.0,-1.3,-0.3,1.08,GOOD
1790984781538,256,2203.0,-199.7613131924592,32000.0,86.5,98.0,-1.3,-0.3,1.08,GOOD
1790984781538,257,2348.0,-193.01930674465666,32000.0,86.5,98.0,-1.3,-0.3,1.08,GOOD
1790984781538,258,2305.0,-167.61734600231142,32000.0,86.5,98.0,-1.3,-0.3,1.08,GOOD
1790984781538,259,2295.0,-127.01497174343214,32000.0,86.5,98.0,-1.3,-0.3,1.08,GOOD
1790984781538,260,2302.0,-90.58954938845669,32000.0,86.5,98.0,-1.3,-0.3,1.08,GOOD
1790984781538,261,2302.0,-70.69216189630214,32000.0,86.5,98.0,-1.3,-0.3,1.08,GOOD
1790984781538,262,2232.0,-71.67484006581833,32000.0,86.5,98.0,-1.3,-0.3,1.08,GOOD
1790984781538,263,2180.0,-97.44365118526082,32000.0,86.5,98.0,-1.3,-0.3,1.08,GOOD
1790984781538,264,2153.0,-142.90082406332215,32000.0,86.5,98.0,-1.3,-0.3,1.08,GOOD
1790984781538,265,2308.0,-183.9647871211328,32000.0,86.5,98.0,-1.3,-0.3,1.08,GOOD
1790984781538,266,2324.0,-190.52754355954494,32000.0,86.5,98.0,-1.3,-0.3,1.08,GOOD
1790984781538,267,2340.0,-158.37288212169983,32000.0,86.5,98.0,-1.3,-0.3,1.08,GOOD
1790984781538,268,2301.0,-113.14024854683815,32000.0,86.5,98.0,-1.3,-0.3,1.08,GOOD
1790984781538,269,1884.0,-96.26186736831261,32000.0,86.5,98.0,-1.3,-0.3,1.08,GOOD
1790984781538,270,1875.0,-152.1771819442318,32000.0,86.5,98.0,-1.3,-0.3,1.08,GOOD
1790984781538,271,1831.0,-282.83543352951006,32000.0,86.5,98.0,-1.3,-0.3,1.08,GOOD
1790984781538,272,1894.0,-432.73160152226603,32000.0,86.5,98.0,-1.3,-0.3,1.08,GOOD
1790984781538,273,2260.0,-524.7075449453085,32000.0,86.5,98.0,-1.3,-0.3,1.08,GOOD
1790984781538,274,2325.0,-493.3016038275646,32000.0,86.5,98.0,-1.3,-0.3,1.08,GOOD
1790984781538,275,2353.0,-339.72159395502734,32000.0,86.5,98.0,-1.3,-0.3,1.08,GOOD
1790984781632,276,2376.0,-146.33852195707277,32000.0,86.5,98.0,-1.4,-0.3,1.08,GOOD
1790984781632,277,2054.0,-16.81158947083513,32000.0,86.5,98.0,-1.4,-0.3,1.08,GOOD
1790984781632,278,2012.0,-18.428061714081128,32000.0,86.5,98.0,-1.4,-0.3,1.08,GOOD
1790984781632,279,1990.0,-136.1205232403605,32000.0,86.5,98.0,-1.4,-0.3,1.08,GOOD
1790984781632,280,1991.0,-283.23654896158024,32000.0,86.5,98.0,-1.4,-0.3,1.08,GOOD
1790984781632,281,2037.0,-382.0111314669606,32000.0,86.5,98.0,-1.4,-0.3,1.08,GOOD
1790984781632,282,1987.0,-412.30733018776414,32000.0,86.5,98.0,-1.4,-0.3,1.08,GOOD
1790984781632,283,1953.0,-400.27503980392925,32000.0,86.5,98.0,-1.4,-0.3,1.08,GOOD
1790984781632,284,2006.0,-379.5564490590454,32000.0,86.5,98.0,-1.4,-0.3,1.08,GOOD
1790984781632,285,1985.0,-363.29951756786465,32000.0,86.5,98.0,-1.4,-0.3,1.08,GOOD
1790984781632,286,2002.0,-353.1264894246536,32000.0,86.5,98.0,-1.4,-0.3,1.08,GOOD
1790984781632,287,1984.0,-350.7182154814127,32000.0,86.5,98.0,-1.4,-0.3,1.08,GOOD
1790984781632,288,1928.0,-355.495076132196,32000.0,86.5,98.0,-1.4,-0.3,1.08,GOOD
1790984781632,289,2054.0,-360.3814617192025,32000.0,86.5,98.0,-1.4,-0.3,1.08,GOOD
1790984781632,290,2073.0,-350.43451098430546,32000.0,86.5,98.0,-1.4,-0.3,1.08,GOOD
1790984781632,291,2095.0,-319.8187523919564,32000.0,86.5,98.0,-1.4,-0.3,1.08,GOOD
1790984781632,292,2075.0,-282.2278843133638,32000.0,86.5,98.0,-1.4,-0.3,1.08,GOOD
1790984781632,293,1721.0,-266.6593282970965,32000.0,86.5,98.0,-1.4,-0.3,1.08,GOOD
1790984781632,294,1698.0,-308.7326119731166,32000.0,86.5,98.0,-1.4,-0.3,1.08,GOOD
1790984781632,295,1696.0,-410.5589326602185,32000.0,86.5,98.0,-1.4,-0.3,1.08,GOOD
1790984781632,296,1695.0,-527.4547255087606,32000.0,86.5,98.0,-1.4,-0.3,1.08,GOOD
1790984781632,297,2029.0,-600.2479536263957,32000.0,86.5,98.0,-1.4,-0.3,1.08,GOOD
1790984781632,298,2023.0,-578.6152654829443,32000.0,86.5,98.0,-1.4,-0.3,1.08,GOOD
1790984781632,299,1990.0,-464.84841490006227,32000.0,86.5,98.0,-1.4,-0.3,1.08,GOOD
1790984781632,300,1979.0,-328.6467263445161,32000.0,86.5,98.0,-1.4,-0.3,1.08,GOOD
1790984781848,301,1934.0,-243.93905507112493,32000.0,86.5,98.0,-1.3,-0.3,1.09,GOOD
1790984781848,302,1948.0,-236.09189887697332,32000.0,86.5,98.0,-1.3,-0.3,1.09,GOOD
1790984781848,303,1922.0,-279.47266903188284,32000.0,86.5,98.0,-1.3,-0.3,1.09,GOOD
1790984781848,304,2054.0,-321.51993490117803,32000.0,86.5,98.0,-1.3,-0.3,1.09,GOOD
1790984781848,305,2051.0,-319.73693775735677,32000.0,86.5,98.0,-1.3,-0.3,1.09,GOOD
1790984781848,306,2060.0,-274.7686539254863,32000.0,86.5,98.0,-1.3,-0.3,1.09,GOOD
1790984781848,307,2041.0,-223.38695695166103,32000.0,86.5,98.0,-1.3,-0.3,1.09,GOOD
1790984781848,308,2040.0,-194.93680342711957,32000.0,86.5,98.0,-1.3,-0.3,1.09,GOOD
1790984781848,309,1981.0,-191.5505595282242,32000.0,86.5,98.0,-1.3,-0.3,1.09,GOOD
1790984781848,310,1932.0,-206.02765952987443,32000.0,86.5,98.0,-1.3,-0.3,1.09,GOOD
1790984781848,311,1993.0,-232.6351494419357,32000.0,86.5,98.0,-1.3,-0.3,1.09,GOOD
1790984781848,312,1917.0,-262.1998325081736,32000.0,86.5,98.0,-1.3,-0.3,1.09,GOOD
1790984781848,313,1918.0,-287.124728818211,32000.0,86.5,98.0,-1.3,-0.3,1.09,GOOD
1790984781848,314,1912.0,-303.5169560374142,32000.0,86.5,98.0,-1.3,-0.3,1.09,GOOD
1790984781848,315,1916.0,-307.912512677132,32000.0,86.5,98.0,-1.3,-0.3,1.09,GOOD
1790984781848,316,2031.0,-299.14837127494866,32000.0,86.5,98.0,-1.3,-0.3,1.09,GOOD
1790984781848,317,2023.0,-276.33351859573486,32000.0,86.5,98.0,-1.3,-0.3,1.09,GOOD
1790984781848,318,2027.0,-242.65039253188314,32000.0,86.5,98.0,-1.3,-0.3,1.09,GOOD
1790984781848,319,2033.0,-207.0065284002932,32000.0,86.5,98.0,-1.3,-0.3,1.09,GOOD
1790984781848,320,1932.0,-180.7188136728176,32000.0,86.5,98.0,-1.3,-0.3,1.09,GOOD
1790984781848,321,1934.0,-178.87971057073392,32000.0,86.5,98.0,-1.3,-0.3,1.09,GOOD
1790984781848,322,1932.0,-206.1878916674122,32000.0,86.5,98.0,-1.3,-0.3,1.09,GOOD
1790984781848,323,1919.0,-245.4842836627306,32000.0,86.5,98.0,-1.3,-0.3,1.09,GOOD
1790984781848,324,2067.0,-268.0631813249954,32000.0,86.5,98.0,-1.3,-0.3,1.09,GOOD
1790984781848,325,2050.0,-250.92563943334784,32000.0,86.5,98.0,-1.3,-0.3,1.09,GOOD
1790984781849,326,1999.0,-202.3966549403571,32000.0,86.5,98.0,-1.3,-0.3,1.09,GOOD
1790984781849,327,1992.0,-159.87698006852548,32000.0,86.5,98.0,-1.3,-0.3,1.09,GOOD
1790984781849,328,2026.0,-146.06725929012015,32000.0,86.5,98.0,-1.3,-0.3,1.09,GOOD
1790984781849,329,2017.0,-151.2996268858338,32000.0,86.5,98.0,-1.3,-0.3,1.09,GOOD
1790984781849,330,2023.0,-158.2219001895624,32000.0,86.5,98.0,-1.3,-0.3,1.09,GOOD
1790984781849,331,2004.0,-160.28668120162115,32000.0,86.5,98.0,-1.3,-0.3,1.09,GOOD
1790984781849,332,2012.0,-158.88156590142438,32000.0,86.5,98.0,-1.3,-0.3,1.09,GOOD
1790984781849,333,1988.0,-156.9364546463077,32000.0,86.5,98.0,-1.3,-0.3,1.09,GOOD
1790984781849,334,1978.0,-157.9901674776321,32000.0,86.5,98.0,-1.3,-0.3,1.09,GOOD
1790984781849,335,2017.0,-162.83349779828882,32000.0,86.5,98.0,-1.3,-0.3,1.09,GOOD
1790984781849,336,2017.0,-165.28305674795814,32000.0,86.5,98.0,-1.3,-0.3,1.09,GOOD
1790984781849,337,1940.0,-162.48138491766173,32000.0,86.5,98.0,-1.3,-0.3,1.09,GOOD
1790984781849,338,1926.0,-163.78512012124662,32000.0,86.5,98.0,-1.3,-0.3,1.09,GOOD
1790984781849,339,1942.0,-176.33297100550283,32000.0,86.5,98.0,-1.3,-0.3,1.09,GOOD
1790984781849,340,1904.0,-195.34338461887904,32000.0,86.5,98.0,-1.3,-0.3,1.09,GOOD
1790984781849,341,1890.0,-215.01880517398666,32000.0,86.5,98.0,-1.3,-0.3,1.09,GOOD
1790984781849,342,1861.0,-233.2329099475279,32000.0,86.5,98.0,-1.3,-0.3,1.09,GOOD
1790984781849,343,1976.0,-243.05612255697793,32000.0,86.5,98.0,-1.3,-0.3,1.09,GOOD
1790984781849,344,2006.0,-231.59526090249568,32000.0,86.5,98.0,-1.3,-0.3,1.09,GOOD
1790984781849,345,2013.0,-196.6397049170131,32000.0,86.5,98.0,-1.3,-0.3,1.09,GOOD
1790984781849,346,2032.0,-152.99484654990547,32000.0,86.5,98.0,-1.3,-0.3,1.09,GOOD
1790984781849,347,2087.0,-112.59431560786021,32000.0,86.5,98.0,-1.3,-0.3,1.09,GOOD
1790984781849,348,2054.0,-77.18486887292363,32000.0,86.5,98.0,-1.3,-0.3,1.09,GOOD
1790984781849,349,1949.0,-56.45479656875096,32000.0,86.5,98.0,-1.3,-0.3,1.09,GOOD
1790984781849,350,1946.0,-67.22760196995553,32000.0,86.5,98.0,-1.3,-0.3,1.09,GOOD
1790984781953,351,2075.0,-100.82865544179668,32000.0,88.0,98.0,-1.3,-0.4,1.08,GOOD
1790984781953,352,2072.0,-120.11429833184387,32000.0,88.0,98.0,-1.3,-0.4,1.08,GOOD
1790984781953,353,2058.0,-105.45287196683952,32000.0,88.0,98.0,-1.3,-0.4,1.08,GOOD
1790984781953,354,2057.0,-73.4566137982667,32000.0,88.0,98.0,-1.3,-0.4,1.08,GOOD
1790984781953,355,2054.0,-47.18622044384869,32000.0,88.0,98.0,-1.3,-0.4,1.08,GOOD
1790984781953,356,2050.0,-35.7045317673864,32000.0,88.0,98.0,-1.3,-0.4,1.08,GOOD
1790984781953,357,2044.0,-37.72612016841584,32000.0,88.0,98.0,-1.3,-0.4,1.08,GOOD
1790984781953,358,1995.0,-49.407100368957,32000.0,88.0,98.0,-1.3,-0.4,1.08,GOOD
1790984781953,359,1974.0,-68.2401945782967,32000.0,88.0,98.0,-1.3,-0.4,1.08,GOOD
1790984781953,360,1979.0,-90.1137366364783,32000.0,88.0,98.0,-1.3,-0.4,1.08,GOOD
1790984781953,361,1968.0,-108.3859313126637,32000.0,88.0,98.0,-1.3,-0.4,1.08,GOOD
1790984781953,362,2116.0,-114.23960857166581,32000.0,88.0,98.0,-1.3,-0.4,1.08,GOOD
1790984781953,363,2127.0,-95.47667783995938,32000.0,88.0,98.0,-1.3,-0.4,1.08,GOOD
1790984781953,364,2121.0,-51.16358989144319,32000.0,88.0,98.0,-1.3,-0.4,1.08,GOOD
1790984781953,365,2131.0,0.11632998551866436,32000.0,88.0,98.0,-1.3,-0.4,1.08,GOOD
1790984781953,366,1833.0,27.057734699472107,32000.0,88.0,98.0,-1.3,-0.4,1.08,GOOD
1790984781953,367,1810.0,-5.815116600201447,32000.0,88.0,98.0,-1.3,-0.4,1.08,GOOD
1790984781953,368,1788.0,-101.30871441940428,32000.0,88.0,98.0,-1.3,-0.4,1.08,GOOD
1790984781953,369,1772.0,-214.70028539811736,32000.0,88.0,98.0,-1.3,-0.4,1.08,GOOD
1790984781953,370,1969.0,-290.4014141521609,32000.0,88.0,98.0,-1.3,-0.4,1.08,GOOD
1790984781953,371,2010.0,-290.3549900939487,32000.0,88.0,98.0,-1.3,-0.4,1.08,GOOD
1790984781953,372,2017.0,-217.48305836177127,32000.0,88.0,98.0,-1.3,-0.4,1.08,GOOD
1790984781953,373,1998.0,-119.82434887670144,32000.0,88.0,98.0,-1.3,-0.4,1.08,GOOD
1790984781953,374,2127.0,-44.05461080206647,32000.0,88.0,98.0,-1.3,-0.4,1.08,GOOD
1790984781953,375,2245.0,6.406831202304873,32000.0,88.0,98.0,-1.3,-0.4,1.08,GOOD
1790984782059,376,2264.0,55.34323993566699,32000.0,88.0,98.0,-1.2,-0.4,1.08,GOOD
1790984782059,377,2277.0,113.06086138070204,32000.0,88.0,98.0,-1.2,-0.4,1.08,GOOD
1790984782059,378,2801.0,189.91450480979557,32000.0,88.0,98.0,-1.2,-0.4,1.08,GOOD
1790984782059,379,2793.0,317.31467948278834,32000.0,88.0,98.0,-1.2,-0.4,1.08,GOOD
1790984782059,380,2811.0,488.4331725947638,32000.0,88.0,98.0,-1.2,-0.4,1.08,GOOD
1790984782059,381,2834.0,640.9239020422267,32000.0,88.0,98.0,-1.2,-0.4,1.08,GOOD
1790984782059,382,2358.0,713.2264925477366,32000.0,88.0,98.0,-1.2,-0.4,1.08,GOOD
1790984782059,383,2291.0,662.3964903106479,32000.0,88.0,98.0,-1.2,-0.4,1.08,GOOD
1790984782059,384,2224.0,494.0783703658978,32000.0,88.0,98.0,-1.2,-0.4,1.08,GOOD
1790984782059,385,2182.0,279.911282371619,32000.0,88.0,98.0,-1.2,-0.4,1.08,GOOD
1790984782059,386,1894.0,90.18063127859769,32000.0,88.0,98.0,-1.2,-0.4,1.08,GOOD
1790984782059,387,1938.0,-51.69032750668925,32000.0,88.0,98.0,-1.2,-0.4,1.08,GOOD
1790984782059,388,1924.0,-141.72670354200108,32000.0,88.0,98.0,-1.2,-0.4,1.08,GOOD
1790984782059,389,1898.0,-184.75769817731975,32000.0,88.0,98.0,-1.2,-0.4,1.08,GOOD
1790984782059,390,2061.0,-199.64082468590436,32000.0,88.0,98.0,-1.2,-0.4,1.08,GOOD
1790984782059,391,2073.0,-190.78227639927016,32000.0,88.0,98.0,-1.2,-0.4,1.08,GOOD
1790984782059,392,2083.0,-148.19988587225023,32000.0,88.0,98.0,-1.2,-0.4,1.08,GOOD
1790984782059,393,2061.0,-82.06203492971332,32000.0,88.0,98.0,-1.2,-0.4,1.08,GOOD
1790984782059,394,1768.0,-37.27660764388593,32000.0,88.0,98.0,-1.2,-0.4,1.08,GOOD
1790984782059,395,1799.0,-67.3106472247046,32000.0,88.0,98.0,-1.2,-0.4,1.08,GOOD
1790984782059,396,1831.0,-167.8013312623759,32000.0,88.0,98.0,-1.2,-0.4,1.08,GOOD
1790984782059,397,1855.0,-268.0901273768105,32000.0,88.0,98.0,-1.2,-0.4,1.08,GOOD
1790984782059,398,2096.0,-299.9553658832024,32000.0,88.0,98.0,-1.2,-0.4,1.08,GOOD
1790984782059,399,2072.0,-243.67171671493963,32000.0,88.0,98.0,-1.2,-0.4,1.08,GOOD
1790984782059,400,2067.0,-137.40246690367965,32000.0,88.0,98.0,-1.2,-0.4,1.08,GOOD
1790984782251,401,2098.0,-43.034774522254544,32000.0,88.0,98.0,-1.4,-0.3,1.08,GOOD
1790984782251,402,2017.0,7.259666905293042,32000.0,88.0,98.0,-1.4,-0.3,1.08,GOOD
1790984782251,403,1979.0,11.555701622114807,32000.0,88.0,98.0,-1.4,-0.3,1.08,GOOD
1790984782251,404,1967.0,-21.09795855431792,32000.0,88.0,98.0,-1.4,-0.3,1.08,GOOD
1790984782251,405,1972.0,-70.76750213320084,32000.0,88.0,98.0,-1.4,-0.3,1.08,GOOD
1790984782251,406,2121.0,-106.46945321707489,32000.0,88.0,98.0,-1.4,-0.3,1.08,GOOD
1790984782251,407,2151.0,-97.91961582701816,32000.0,88.0,98.0,-1.4,-0.3,1.08,GOOD
1790984782251,408,2095.0,-45.04804546698958,32000.0,88.0,98.0,-1.4,-0.3,1.08,GOOD
1790984782251,409,2097.0,14.906266416462149,32000.0,88.0,98.0,-1.4,-0.3,1.08,GOOD
1790984782251,410,2092.0,47.162015215333724,32000.0,88.0,98.0,-1.4,-0.3,1.08,GOOD
1790984782251,411,2104.0,47.6092360283563,32000.0,88.0,98.0,-1.4,-0.3,1.08,GOOD
1790984782251,412,2116.0,32.54051996587612,32000.0,88.0,98.0,-1.4,-0.3,1.08,GOOD
1790984782251,413,2110.0,19.77549368708662,32000.0,88.0,98.0,-1.4,-0.3,1.08,GOOD
1790984782251,414,2019.0,13.968918396840772,32000.0,88.0,98.0,-1.4,-0.3,1.08,GOOD
1790984782251,415,2029.0,5.317964514485449,32000.0,88.0,98.0,-1.4,-0.3,1.08,GOOD
1790984782251,416,2052.0,-11.850183373316241,32000.0,88.0,98.0,-1.4,-0.3,1.08,GOOD
1790984782251,417,2051.0,-30.036048479581403,32000.0,88.0,98.0,-1.4,-0.3,1.08,GOOD
1790984782251,418,2089.0,-39.34170183039812,32000.0,88.0,98.0,-1.4,-0.3,1.08,GOOD
1790984782251,419,1957.0,-38.85294512185881,32000.0,88.0,98.0,-1.4,-0.3,1.08,GOOD
1790984782251,420,2061.0,-37.03441666621124,32000.0,88.0,98.0,-1.4,-0.3,1.08,GOOD
1790984782251,421,2085.0,-35.193490788424114,32000.0,88.0,98.0,-1.4,-0.3,1.08,GOOD
1790984782251,422,2332.0,-17.261670648302037,32000.0,88.0,98.0,-1.4,-0.3,1.08,GOOD
1790984782251,423,2327.0,36.034265548625044,32000.0,88.0,98.0,-1.4,-0.3,1.08,GOOD
1790984782251,424,2327.0,120.78915306220489,32000.0,88.0,98.0,-1.4,-0.3,1.08,GOOD
1790984782251,425,2325.0,206.67453526402883,32000.0,88.0,98.0,-1.4,-0.3,1.08,GOOD
1790984782381,426,2398.0,267.09169365957763,32000.0,88.0,98.0,-1.3,-0.3,1.08,GOOD
1790984782381,427,2298.0,291.7656248489203,32000.0,88.0,98.0,-1.3,-0.3,1.08,GOOD
1790984782381,428,2267.0,276.55287239717234,32000.0,88.0,98.0,-1.3,-0.3,1.08,GOOD
1790984782381,429,2371.0,236.2526190547261,32000.0,88.0,98.0,-1.3,-0.3,1.08,GOOD
1790984782381,430,2335.0,208.71657093349503,32000.0,88.0,98.0,-1.3,-0.3,1.08,GOOD
1790984782381,431,2333.0,211.93838870514173,32000.0,88.0,98.0,-1.3,-0.3,1.08,GOOD
1790984782381,432,2350.0,226.6416434002084,32000.0,88.0,98.0,-1.3,-0.3,1.08,GOOD
1790984782381,433,2339.0,231.9449559631202,32000.0,88.0,98.0,-1.3,-0.3,1.08,GOOD
1790984782381,434,2308.0,225.882338111486,32000.0,88.0,98.0,-1.3,-0.3,1.08,GOOD
1790984782381,435,2308.0,215.63764268694243,32000.0,88.0,98.0,-1.3,-0.3,1.08,GOOD
1790984782381,436,2306.0,205.7404226954719,32000.0,88.0,98.0,-1.3,-0.3,1.08,GOOD
1790984782381,437,2306.0,194.39290778566829,32000.0,88.0,98.0,-1.3,-0.3,1.08,GOOD
1790984782381,438,2076.0,170.39974413110326,32000.0,88.0,98.0,-1.3,-0.3,1.08,GOOD
1790984782381,439,2082.0,118.9181708155318,32000.0,88.0,98.0,-1.3,-0.3,1.08,GOOD
1790984782381,440,2070.0,47.092660829197754,32000.0,88.0,98.0,-1.3,-0.3,1.08,GOOD
1790984782381,441,2064.0,-17.874806643609073,32000.0,88.0,98.0,-1.3,-0.3,1.08,GOOD
1790984782381,442,1962.0,-65.60269494985354,32000.0,88.0,98.0,-1.3,-0.3,1.08,GOOD
1790984782381,443,1964.0,-106.01091039521651,32000.0,88.0,98.0,-1.3,-0.3,1.08,GOOD
1790984782381,444,1945.0,-140.75511833612,32000.0,88.0,98.0,-1.3,-0.3,1.08,GOOD
1790984782381,445,1916.0,-162.23410124541726,32000.0,88.0,98.0,-1.3,-0.3,1.08,GOOD
1790984782381,446,2026.0,-169.6656514704854,32000.0,88.0,98.0,-1.3,-0.3,1.08,GOOD
1790984782381,447,2035.0,-163.90169161598885,32000.0,88.0,98.0,-1.3,-0.3,1.08,GOOD
1790984782381,448,2039.0,-144.1217541360441,32000.0,88.0,98.0,-1.3,-0.3,1.08,GOOD
1790984782381,449,2033.0,-114.34800660761653,32000.0,88.0,98.0,-1.3,-0.3,1.08,GOOD
1790984782381,450,1931.0,-86.95738711604272,32000.0,88.0,98.0,-1.3,-0.3,1.08,GOOD
1790984782382,451,1926.0,-82.70431613333533,32000.0,88.0,98.0,-1.3,-0.3,1.08,GOOD
1790984782382,452,1947.0,-110.78036182056455,32000.0,88.0,98.0,-1.3,-0.3,1.08,GOOD
1790984782382,453,1948.0,-152.40427657419437,32000.0,88.0,98.0,-1.3,-0.3,1.08,GOOD
1790984782382,454,1966.0,-178.3617733170385,32000.0,88.0,98.0,-1.3,-0.3,1.08,GOOD
1790984782382,455,1990.0,-173.46379731316446,32000.0,88.0,98.0,-1.3,-0.3,1.08,GOOD
1790984782382,456,1990.0,-145.09749246194625,32000.0,88.0,98.0,-1.3,-0.3,1.08,GOOD
1790984782382,457,1986.0,-115.5748774388142,32000.0,88.0,98.0,-1.3,-0.3,1.08,GOOD
1790984782382,458,1856.0,-106.81588962368559,32000.0,88.0,98.0,-1.3,-0.3,1.08,GOOD
1790984782382,459,1856.0,-128.05508307610086,32000.0,88.0,98.0,-1.3,-0.3,1.08,GOOD
1790984782382,460,1820.0,-169.0473586259098,32000.0,88.0,98.0,-1.3,-0.3,1.08,GOOD
1790984782382,461,1804.0,-211.83028460857827,32000.0,88.0,98.0,-1.3,-0.3,1.08,GOOD
1790984782382,462,2017.0,-239.3947710973605,32000.0,88.0,98.0,-1.3,-0.3,1.08,GOOD
1790984782382,463,2002.0,-229.79308751712844,32000.0,88.0,98.0,-1.3,-0.3,1.08,GOOD
1790984782382,464,2000.0,-177.73603754542592,32000.0,88.0,98.0,-1.3,-0.3,1.08,GOOD
1790984782382,465,2000.0,-109.3740288711228,32000.0,88.0,98.0,-1.3,-0.3,1.08,GOOD
1790984782382,466,1918.0,-59.41678668718453,32000.0,88.0,98.0,-1.3,-0.3,1.08,GOOD
1790984782382,467,1885.0,-52.91159702301406,32000.0,88.0,98.0,-1.3,-0.3,1.08,GOOD
1790984782382,468,1944.0,-88.73264677701314,32000.0,88.0,98.0,-1.3,-0.3,1.08,GOOD
1790984782382,469,1959.0,-132.4946483004357,32000.0,88.0,98.0,-1.3,-0.3,1.08,GOOD
1790984782382,470,1904.0,-150.64704874377287,32000.0,88.0,98.0,-1.3,-0.3,1.08,GOOD
1790984782382,471,1896.0,-143.81828638999582,32000.0,88.0,98.0,-1.3,-0.3,1.08,GOOD
1790984782382,472,1891.0,-133.7368851945747,32000.0,88.0,98.0,-1.3,-0.3,1.08,GOOD
1790984782382,473,1894.0,-134.79264199146374,32000.0,88.0,98.0,-1.3,-0.3,1.08,GOOD
1790984782382,474,1933.0,-143.8229438458048,32000.0,88.0,98.0,-1.3,-0.3,1.08,GOOD
1790984782382,475,1857.0,-149.47682705384773,32000.0,88.0,98.0,-1.3,-0.3,1.08,GOOD
1790984782488,476,1832.0,-150.81985285746111,32000.0,88.0,98.0,-1.4,-0.3,1.08,GOOD
1790984782488,477,1857.0,-156.02855617425223,32000.0,88.0,98.0,-1.4,-0.3,1.08,GOOD
1790984782488,478,1957.0,-162.4575101427601,32000.0,88.0,98.0,-1.4,-0.3,1.08,GOOD
1790984782488,479,1973.0,-155.36155490614857,32000.0,88.0,98.0,-1.4,-0.3,1.08,GOOD
1790984782488,480,1981.0,-127.17996321914454,32000.0,88.0,98.0,-1.4,-0.3,1.08,GOOD
1790984782488,481,1987.0,-85.62069517892346,32000.0,88.0,98.0,-1.4,-0.3,1.08,GOOD
1790984782488,482,1965.0,-46.111217532582735,32000.0,88.0,98.0,-1.4,-0.3,1.08,GOOD
1790984782488,483,1935.0,-25.715018363458537,32000.0,88.0,98.0,-1.4,-0.3,1.08,GOOD
1790984782488,484,1929.0,-33.89457869780561,32000.0,88.0,98.0,-1.4,-0.3,1.08,GOOD
1790984782488,485,1920.0,-61.55033144753767,32000.0,88.0,98.0,-1.4,-0.3,1.08,GOOD
1790984782488,486,2064.0,-81.72466464198857,32000.0,88.0,98.0,-1.4,-0.3,1.08,GOOD
1790984782488,487,2065.0,-67.57544491867566,32000.0,88.0,98.0,-1.4,-0.3,1.08,GOOD
1790984782488,488,2069.0,-21.030234436815665,32000.0,88.0,98.0,-1.4,-0.3,1.08,GOOD
1790984782488,489,1931.0,23.114398655610096,32000.0,88.0,98.0,-1.4,-0.3,1.08,GOOD
1790984782488,490,1943.0,31.02219537935912,32000.0,88.0,98.0,-1.4,-0.3,1.08,GOOD
1790984782488,491,1927.0,2.1502375810450776,32000.0,88.0,98.0,-1.4,-0.3,1.08,GOOD
1790984782488,492,1916.0,-39.478569181781765,32000.0,88.0,98.0,-1.4,-0.3,1.08,GOOD
1790984782488,493,1971.0,-72.8700927585011,32000.0,88.0,98.0,-1.4,-0.3,1.08,GOOD
1790984782488,494,1967.0,-85.97367270700117,32000.0,88.0,98.0,-1.4,-0.3,1.08,GOOD
1790984782488,495,1975.0,-75.49544391628287,32000.0,88.0,98.0,-1.4,-0.3,1.08,GOOD
1790984782488,496,1970.0,-50.254621111167474,32000.0,88.0,98.0,-1.4,-0.3,1.08,GOOD
1790984782488,497,1919.0,-27.872064458187193,32000.0,88.0,98.0,-1.4,-0.3,1.08,GOOD
1790984782488,498,1938.0,-24.57774034616326,32000.0,88.0,98.0,-1.4,-0.3,1.08,GOOD
1790984782488,499,1958.0,-39.27070591188005,32000.0,88.0,98.0,-1.4,-0.3,1.08,GOOD
1790984782488,500,1957.0,-53.997190515249265,32000.0,88.0,98.0,-1.4,-0.3,1.08,GOOD
1790984782590,501,1934.0,-56.05161161705267,32000.0,89.9,98.0,-1.4,-0.4,1.08,GOOD
1790984782590,502,1929.0,-49.61808641111175,32000.0,89.9,98.0,-1.4,-0.4,1.08,GOOD
1790984782590,503,1924.0,-45.77136731370405,32000.0,89.9,98.0,-1.4,-0.4,1.08,GOOD
1790984782590,504,1929.0,-49.52964497180093,32000.0,89.9,98.0,-1.4,-0.4,1.08,GOOD
1790984782590,505,2050.0,-52.150701177317394,32000.0,89.9,98.0,-1.4,-0.4,1.08,GOOD
1790984782590,506,2054.0,-35.694118834089835,32000.0,89.9,98.0,-1.4,-0.4,1.08,GOOD
1790984782590,507,2041.0,3.1164996945910612,32000.0,89.9,98.0,-1.4,-0.4,1.08,GOOD
1790984782590,508,2038.0,44.57386353972495,32000.0,89.9,98.0,-1.4,-0.4,1.08,GOOD
1790984782590,509,2105.0,71.82028259509136,32000.0,89.9,98.0,-1.4,-0.4,1.08,GOOD
1790984782590,510,2109.0,87.33178553362599,32000.0,89.9,98.0,-1.4,-0.4,1.08,GOOD
1790984782590,511,2105.0,99.26803173934955,32000.0,89.9,98.0,-1.4,-0.4,1.08,GOOD
1790984782590,512,2103.0,109.32412200412335,32000.0,89.9,98.0,-1.4,-0.4,1.08,GOOD
1790984782590,513,1947.0,110.58649651202091,32000.0,89.9,98.0,-1.4,-0.4,1.08,GOOD
1790984782590,514,1936.0,88.4101399222423,32000.0,89.9,98.0,-1.4,-0.4,1.08,GOOD
1790984782590,515,1936.0,39.56658121775379,32000.0,89.9,98.0,-1.4,-0.4,1.08,GOOD
1790984782590,516,1938.0,-16.38071820478622,32000.0,89.9,98.0,-1.4,-0.4,1.08,GOOD
1790984782590,517,1926.0,-56.741899599859195,32000.0,89.9,98.0,-1.4,-0.4,1.08,GOOD
1790984782590,518,1919.0,-72.55478285872962,32000.0,89.9,98.0,-1.4,-0.4,1.08,GOOD
1790984782590,519,1932.0,-68.03571252541147,32000.0,89.9,98.0,-1.4,-0.4,1.08,GOOD
1790984782590,520,1916.0,-55.41576708516503,32000.0,89.9,98.0,-1.4,-0.4,1.08,GOOD
1790984782590,521,2053.0,-42.94037494809847,32000.0,89.9,98.0,-1.4,-0.4,1.08,GOOD
1790984782590,522,2037.0,-24.11024126659031,32000.0,89.9,98.0,-1.4,-0.4,1.08,GOOD
1790984782590,523,2047.0,7.932373309201173,32000.0,89.9,98.0,-1.4,-0.4,1.08,GOOD
1790984782590,524,2051.0,45.62651400720139,32000.0,89.9,98.0,-1.4,-0.4,1.08,GOOD
1790984782590,525,1877.0,68.87285258803236,32000.0,89.9,98.0,-1.4,-0.4,1.08,GOOD
1790984782905,526,1866.0,52.541348103211504,-54.0,89.9,98.0,-1.3,-0.3,1.08,GOOD
1790984782905,527,1856.0,-5.770102508234368,-57.0,89.9,98.0,-1.3,-0.3,1.08,GOOD
1790984782905,528,1862.0,-74.25384937388316,-51.0,89.9,98.0,-1.3,-0.3,1.08,GOOD
1790984782905,529,2076.0,-110.65244658592165,-46.0,89.9,98.0,-1.3,-0.3,1.08,GOOD
1790984782905,530,2085.0,-86.12238754303561,-41.0,89.9,98.0,-1.3,-0.3,1.08,GOOD
1790984782905,531,2099.0,-9.918346736720924,-38.0,89.9,98.0,-1.3,-0.3,1.08,GOOD
1790984782905,532,2100.0,75.1839896848851,-37.0,89.9,98.0,-1.3,-0.3,1.08,GOOD
1790984782905,533,2401.0,145.8359956277286,-34.0,89.9,98.0,-1.3,-0.3,1.08,GOOD
1790984782905,534,2449.0,221.26786459134271,-31.0,89.9,98.0,-1.3,-0.3,1.08,GOOD
1790984782905,535,2476.0,315.5028670694908,-27.0,89.9,98.0,-1.3,-0.3,1.08,GOOD
1790984782905,536,2495.0,408.42542111776675,-24.0,89.9,98.0,-1.3,-0.3,1.08,GOOD
1790984782905,537,2808.0,489.42525366647203,-23.0,89.9,98.0,-1.3,-0.3,1.08,GOOD
1790984782905,538,2800.0,578.2587739506771,-20.0,89.9,98.0,-1.3,-0.3,1.08,GOOD
1790984782905,539,2801.0,675.4311666372472,-18.0,89.9,98.0,-1.3,-0.3,1.08,GOOD
1790984782905,540,2788.0,747.8299650798933,-16.0,89.9,98.0,-1.3,-0.3,1.08,GOOD
1790984782905,541,1766.0,736.5753816541394,-15.0,89.9,98.0,-1.3,-0.3,1.08,GOOD
1790984782905,542,1750.0,562.4431459090238,-11.0,89.9,98.0,-1.3,-0.3,1.08,GOOD
1790984782905,543,1689.0,233.40880150232437,-9.0,89.9,98.0,-1.3,-0.3,1.08,GOOD
1790984782905,544,1661.0,-119.8953931819336,-7.0,89.9,98.0,-1.3,-0.3,1.08,GOOD
1790984782905,545,1992.0,-362.9207974513622,-7.0,89.9,98.0,-1.3,-0.3,1.08,GOOD
1790984782905,546,2042.0,-419.1572127936324,-6.0,89.9,98.0,-1.3,-0.3,1.08,GOOD
1790984782905,547,2047.0,-296.51346852512705,-7.0,89.9,98.0,-1.3,-0.3,1.08,GOOD
1790984782905,548,2027.0,-99.31585399116874,-7.0,89.9,98.0,-1.3,-0.3,1.08,GOOD
1790984782905,549,2011.0,46.305215349283955,-7.0,89.9,98.0,-1.3,-0.3,1.08,GOOD
1790984782905,550,2025.0,81.33169075800305,-8.0,89.9,98.0,-1.3,-0.3,1.08,GOOD
1790984782905,551,1996.0,36.23053991215947,32000.0,89.9,98.0,-1.3,-0.3,1.08,GOOD
1790984782905,552,2004.0,-17.814620369303167,32000.0,89.9,98.0,-1.3,-0.3,1.08,GOOD
1790984782905,553,1984.0,-37.312159161646264,32000.0,89.9,98.0,-1.3,-0.3,1.08,GOOD
1790984782905,554,1965.0,-32.62491106008215,32000.0,89.9,98.0,-1.3,-0.3,1.08,GOOD
1790984782905,555,2095.0,-31.233911702624532,32000.0,89.9,98.0,-1.3,-0.3,1.08,GOOD
1790984782905,556,2123.0,-28.388886561638213,32000.0,89.9,98.0,-1.3,-0.3,1.08,GOOD
1790984782905,557,2142.0,1.0582459132164992,32000.0,89.9,98.0,-1.3,-0.3,1.08,GOOD
1790984782905,558,2118.0,56.95690887041627,32000.0,89.9,98.0,-1.3,-0.3,1.08,GOOD
1790984782905,559,2080.0,105.95979536724724,32000.0,89.9,98.0,-1.3,-0.3,1.08,GOOD
1790984782905,560,2105.0,115.89993411805816,32000.0,89.9,98.0,-1.3,-0.3,1.08,GOOD
1790984782905,561,2119.0,91.24450580823867,32000.0,89.9,98.0,-1.3,-0.3,1.08,GOOD
1790984782905,562,2135.0,66.46492252831261,32000.0,89.9,98.0,-1.3,-0.3,1.08,GOOD
1790984782905,563,2120.0,66.15449575966554,32000.0,89.9,98.0,-1.3,-0.3,1.08,GOOD
1790984782905,564,2227.0,87.1010915680473,32000.0,89.9,98.0,-1.3,-0.3,1.08,GOOD
1790984782905,565,2234.0,116.14503370869645,32000.0,89.9,98.0,-1.3,-0.3,1.08,GOOD
1790984782905,566,2252.0,145.26898703116285,32000.0,89.9,98.0,-1.3,-0.3,1.08,GOOD
1790984782905,567,2293.0,173.952963224758,32000.0,89.9,98.0,-1.3,-0.3,1.08,GOOD
1790984782905,568,2261.0,204.57056751302105,32000.0,89.9,98.0,-1.3,-0.3,1.08,GOOD
1790984782905,569,2230.0,227.9191331635445,32000.0,89.9,98.0,-1.3,-0.3,1.08,GOOD
1790984782905,570,2235.0,227.48351912495158,32000.0,89.9,98.0,-1.3,-0.3,1.08,GOOD
1790984782905,571,2357.0,208.40987016796151,32000.0,89.9,98.0,-1.3,-0.3,1.08,GOOD
1790984782905,572,2390.0,202.37051651146476,32000.0,89.9,98.0,-1.3,-0.3,1.08,GOOD
1790984782905,573,2379.0,229.97324420825976,32000.0,89.9,98.0,-1.3,-0.3,1.08,GOOD
1790984782905,574,2384.0,275.964747822103,32000.0,89.9,98.0,-1.3,-0.3,1.08,GOOD
1790984782905,575,2304.0,308.1454406080054,32000.0,89.9,98.0,-1.3,-0.3,1.08,GOOD
1790984782906,576,2303.0,304.96485491161945,32000.0,89.9,98.0,-1.3,-0.3,1.08,GOOD
1790984782906,577,2310.0,271.0880561711188,32000.0,89.9,98.0,-1.3,-0.3,1.08,GOOD
1790984782906,578,2280.0,230.35331747900403,32000.0,89.9,98.0,-1.3,-0.3,1.08,GOOD
1790984782906,579,2343.0,203.01154809611947,32000.0,89.9,98.0,-1.3,-0.3,1.08,GOOD
1790984782906,580,2335.0,196.8661120589604,32000.0,89.9,98.0,-1.3,-0.3,1.08,GOOD
1790984782906,581,2357.0,207.8151360621734,32000.0,89.9,98.0,-1.3,-0.3,1.08,GOOD
1790984782906,582,2193.0,217.87005733701392,32000.0,89.9,98.0,-1.3,-0.3,1.08,GOOD
1790984782906,583,2150.0,201.91799013313832,32000.0,89.9,98.0,-1.3,-0.3,1.08,GOOD
1790984782906,584,2134.0,151.61638658201707,32000.0,89.9,98.0,-1.3,-0.3,1.08,GOOD
1790984782906,585,2108.0,85.14970517931042,32000.0,89.9,98.0,-1.3,-0.3,1.08,GOOD
1790984782906,586,2119.0,25.89730730284447,32000.0,89.9,98.0,-1.3,-0.3,1.08,GOOD
1790984782906,587,2138.0,-11.370715114105746,32000.0,89.9,98.0,-1.3,-0.3,1.08,GOOD
1790984782906,588,2124.0,-20.76086836286737,32000.0,89.9,98.0,-1.3,-0.3,1.08,GOOD
1790984782906,589,2103.0,-9.97133969382436,32000.0,89.9,98.0,-1.3,-0.3,1.08,GOOD
1790984782906,590,2005.0,-1.008267110982957,32000.0,89.9,98.0,-1.3,-0.3,1.08,GOOD
1790984782906,591,2034.0,-15.060255814874267,32000.0,89.9,98.0,-1.3,-0.3,1.08,GOOD
1790984782906,592,2034.0,-50.04037110037294,32000.0,89.9,98.0,-1.3,-0.3,1.08,GOOD
1790984782906,593,2032.0,-83.75129328896531,32000.0,89.9,98.0,-1.3,-0.3,1.08,GOOD
1790984782906,594,2011.0,-100.37062363621787,32000.0,89.9,98.0,-1.3,-0.3,1.08,GOOD
1790984782906,595,1994.0,-102.2646915601166,32000.0,89.9,98.0,-1.3,-0.3,1.08,GOOD
1790984782906,596,2018.0,-100.25227298429127,32000.0,89.9,98.0,-1.3,-0.3,1.08,GOOD
1790984782906,597,2006.0,-100.89053504013941,32000.0,89.9,98.0,-1.3,-0.3,1.08,GOOD
1790984782906,598,1976.0,-105.387782346308,32000.0,89.9,98.0,-1.3,-0.3,1.08,GOOD
1790984782906,599,1960.0,-113.70548134869401,32000.0,89.9,98.0,-1.3,-0.3,1.08,GOOD
1790984782906,600,1955.0,-124.02696291699334,32000.0,89.9,98.0,-1.3,-0.3,1.08,GOOD
1790984783095,601,1978.0,-133.06826943152436,32000.0,89.9,98.0,-1.4,-0.3,1.08,GOOD
1790984783095,602,1989.0,-137.9822003468741,32000.0,89.9,98.0,-1.4,-0.3,1.08,GOOD
1790984783095,603,1976.0,-137.47749124901327,32000.0,89.9,98.0,-1.4,-0.3,1.08,GOOD
1790984783095,604,1959.0,-132.75452255019303,32000.0,89.9,98.0,-1.4,-0.3,1.08,GOOD
1790984783095,605,1831.0,-131.88161626896365,32000.0,89.9,98.0,-1.4,-0.3,1.08,GOOD
1790984783095,606,1846.0,-149.20262648215038,32000.0,89.9,98.0,-1.4,-0.3,1.08,GOOD
1790984783095,607,1840.0,-187.33350331428585,32000.0,89.9,98.0,-1.4,-0.3,1.08,GOOD
1790984783095,608,1839.0,-229.78585534607632,32000.0,89.9,98.0,-1.4,-0.3,1.08,GOOD
1790984783095,609,1959.0,-252.88318745903106,32000.0,89.9,98.0,-1.4,-0.3,1.08,GOOD
1790984783095,610,1987.0,-236.50952661725142,32000.0,89.9,98.0,-1.4,-0.3,1.08,GOOD
1790984783095,611,2002.0,-182.23840728077943,32000.0,89.9,98.0,-1.4,-0.3,1.08,GOOD
1790984783095,612,1988.0,-119.07702405418398,32000.0,89.9,98.0,-1.4,-0.3,1.08,GOOD
1790984783095,613,1878.0,-81.58220391277024,32000.0,89.9,98.0,-1.4,-0.3,1.08,GOOD
1790984783095,614,1848.0,-88.38163729843802,32000.0,89.9,98.0,-1.4,-0.3,1.08,GOOD
1790984783095,615,1829.0,-131.53551687411718,32000.0,89.9,98.0,-1.4,-0.3,1.08,GOOD
1790984783095,616,1836.0,-184.48771837365715,32000.0,89.9,98.0,-1.4,-0.3,1.08,GOOD
1790984783095,617,1935.0,-220.52020460355948,32000.0,89.9,98.0,-1.4,-0.3,1.08,GOOD
1790984783095,618,1998.0,-219.78414756658242,32000.0,89.9,98.0,-1.4,-0.3,1.08,GOOD
1790984783095,619,1977.0,-178.76276686468606,32000.0,89.9,98.0,-1.4,-0.3,1.08,GOOD
1790984783095,620,1972.0,-119.02104118840882,32000.0,89.9,98.0,-1.4,-0.3,1.08,GOOD
1790984783095,621,2021.0,-69.05861542316113,32000.0,89.9,98.0,-1.4,-0.3,1.08,GOOD
1790984783095,622,2030.0,-40.7765985600881,32000.0,89.9,98.0,-1.4,-0.3,1.08,GOOD
1790984783095,623,2010.0,-31.364952138869615,32000.0,89.9,98.0,-1.4,-0.3,1.08,GOOD
1790984783095,624,2010.0,-33.337492053976874,32000.0,89.9,98.0,-1.4,-0.3,1.08,GOOD
1790984783095,625,2046.0,-35.334297990428226,32000.0,89.9,98.0,-1.4,-0.3,1.08,GOOD
1790984783096,626,2052.0,-27.703996405523487,32000.0,89.9,98.0,-1.4,-0.3,1.08,GOOD
1790984783096,627,2062.0,-12.870410319802025,32000.0,89.9,98.0,-1.4,-0.3,1.08,GOOD
1790984783096,628,2053.0,-0.9143707561662309,32000.0,89.9,98.0,-1.4,-0.3,1.08,GOOD
1790984783096,629,1937.0,-0.3238968709113852,32000.0,89.9,98.0,-1.4,-0.3,1.08,GOOD
1790984783096,630,1915.0,-17.710552890063468,32000.0,89.9,98.0,-1.4,-0.3,1.08,GOOD
1790984783096,631,1939.0,-51.24155662632085,32000.0,89.9,98.0,-1.4,-0.3,1.08,GOOD
1790984783096,632,1930.0,-87.83354096201485,32000.0,89.9,98.0,-1.4,-0.3,1.08,GOOD
1790984783096,633,1892.0,-117.22145278903412,32000.0,89.9,98.0,-1.4,-0.3,1.08,GOOD
1790984783096,634,1889.0,-136.83606838269657,32000.0,89.9,98.0,-1.4,-0.3,1.08,GOOD
1790984783096,635,1884.0,-144.5712671153658,32000.0,89.9,98.0,-1.4,-0.3,1.08,GOOD
1790984783096,636,1875.0,-142.20507501554334,32000.0,89.9,98.0,-1.4,-0.3,1.08,GOOD
1790984783096,637,2025.0,-134.19665579443793,32000.0,89.9,98.0,-1.4,-0.3,1.08,GOOD
1790984783096,638,2017.0,-115.60507138793166,32000.0,89.9,98.0,-1.4,-0.3,1.08,GOOD
1790984783096,639,2005.0,-81.77629924051098,32000.0,89.9,98.0,-1.4,-0.3,1.08,GOOD
1790984783096,640,2012.0,-41.45987064136637,32000.0,89.9,98.0,-1.4,-0.3,1.08,GOOD
1790984783096,641,2068.0,-5.778303263810118,32000.0,89.9,98.0,-1.4,-0.3,1.08,GOOD
1790984783096,642,2057.0,18.979787348764074,32000.0,89.9,98.0,-1.4,-0.3,1.08,GOOD
1790984783096,643,2046.0,28.088554736146193,32000.0,89.9,98.0,-1.4,-0.3,1.08,GOOD
1790984783096,644,2051.0,24.242601640436526,32000.0,89.9,98.0,-1.4,-0.3,1.08,GOOD
1790984783096,645,2044.0,20.34090755776559,32000.0,89.9,98.0,-1.4,-0.3,1.08,GOOD
1790984783096,646,2050.0,24.33337178680368,32000.0,89.9,98.0,-1.4,-0.3,1.08,GOOD
1790984783096,647,2033.0,28.914160283299964,32000.0,89.9,98.0,-1.4,-0.3,1.08,GOOD
1790984783096,648,2016.0,22.743243478878604,32000.0,89.9,98.0,-1.4,-0.3,1.08,GOOD
1790984783096,649,1994.0,5.849653582664306,32000.0,89.9,98.0,-1.4,-0.3,1.08,GOOD
1790984783096,650,2015.0,-9.973158992155184,32000.0,89.9,98.0,-1.4,-0.3,1.08,GOOD
1790984783403,651,2003.0,-15.435729596020423,-3.0,89.9,98.0,-1.4,-0.3,1.08,GOOD
1790984783403,652,1989.0,-15.452241610523831,-2.0,89.9,98.0,-1.4,-0.3,1.08,GOOD
1790984783403,653,2033.0,-19.07596588393179,-1.0,89.9,98.0,-1.4,-0.3,1.08,GOOD
1790984783403,654,2035.0,-21.950669835107895,0.0,89.9,98.0,-1.4,-0.3,1.08,GOOD
1790984783403,655,2049.0,-13.242183063063408,1.0,89.9,98.0,-1.4,-0.3,1.08,GOOD
1790984783403,656,2036.0,5.933146962806631,2.0,89.9,98.0,-1.4,-0.3,1.08,GOOD
1790984783403,657,1880.0,16.089006049707518,0.0,89.9,98.0,-1.4,-0.3,1.08,GOOD
1790984783403,658,1855.0,-7.7714816534450994,3.0,89.9,98.0,-1.4,-0.3,1.08,GOOD
1790984783403,659,1831.0,-66.17601745434736,3.0,89.9,98.0,-1.4,-0.3,1.08,GOOD
1790984783403,660,1831.0,-130.94369384023526,3.0,89.9,98.0,-1.4,-0.3,1.08,GOOD
1790984783403,661,2077.0,-166.34030574093555,6.0,89.9,98.0,-1.4,-0.3,1.08,GOOD
1790984783403,662,2050.0,-145.51083796804028,5.0,89.9,98.0,-1.4,-0.3,1.08,GOOD
1790984783403,663,2050.0,-76.30001848707612,6.0,89.9,98.0,-1.4,-0.3,1.08,GOOD
1790984783403,664,2056.0,1.3682896864997804,9.0,89.9,98.0,-1.4,-0.3,1.08,GOOD
1790984783403,665,2120.0,58.26882477824224,6.0,89.9,98.0,-1.4,-0.3,1.08,GOOD
1790984783403,666,2112.0,89.90924249765033,8.0,89.9,98.0,-1.4,-0.3,1.08,GOOD
1790984783403,667,2110.0,99.9367142462973,9.0,89.9,98.0,-1.4,-0.3,1.08,GOOD
1790984783403,668,2086.0,94.75769266205188,10.0,89.9,98.0,-1.4,-0.3,1.08,GOOD
1790984783403,669,1925.0,79.33433854405695,13.0,89.9,98.0,-1.4,-0.3,1.08,GOOD
1790984783403,670,1930.0,48.27696454029007,12.0,89.9,98.0,-1.4,-0.3,1.08,GOOD
1790984783403,671,1935.0,-0.586734441071366,13.0,89.9,98.0,-1.4,-0.3,1.08,GOOD
1790984783403,672,1921.0,-53.834232466696825,17.0,89.9,98.0,-1.4,-0.3,1.08,GOOD
1790984783403,673,1991.0,-91.4872379173756,16.0,89.9,98.0,-1.4,-0.3,1.08,GOOD
1790984783403,674,1987.0,-95.99921996093286,20.0,89.9,98.0,-1.4,-0.3,1.08,GOOD
1790984783403,675,1970.0,-67.83199964305953,23.0,89.9,98.0,-1.4,-0.3,1.08,GOOD
1790984783404,676,1859.0,-36.67125318397622,32000.0,89.9,98.0,-1.4,-0.3,1.08,GOOD
1790984783404,677,2052.0,-30.701879840315,32000.0,89.9,98.0,-1.4,-0.3,1.08,GOOD
1790984783404,678,2048.0,-37.200388200359825,32000.0,89.9,98.0,-1.4,-0.3,1.08,GOOD
1790984783404,679,2064.0,-25.919401740144778,32000.0,89.9,98.0,-1.4,-0.3,1.08,GOOD
1790984783404,680,2064.0,7.550673012038471,32000.0,89.9,98.0,-1.4,-0.3,1.08,GOOD
1790984783404,681,2024.0,44.41033591492103,32000.0,89.9,98.0,-1.4,-0.3,1.08,GOOD
1790984783404,682,2016.0,62.48555412964559,32000.0,89.9,98.0,-1.4,-0.3,1.08,GOOD
1790984783404,683,2013.0,52.964897354445625,32000.0,89.9,98.0,-1.4,-0.3,1.08,GOOD
1790984783404,684,2006.0,27.366306861107322,32000.0,89.9,98.0,-1.4,-0.3,1.08,GOOD
1790984783404,685,2460.0,22.671692376072087,32000.0,89.9,98.0,-1.4,-0.3,1.08,GOOD
1790984783404,686,2483.0,90.27205372190681,32000.0,89.9,98.0,-1.4,-0.3,1.08,GOOD
1790984783404,687,2506.0,232.1631303395338,32000.0,89.9,98.0,-1.4,-0.3,1.08,GOOD
1790984783404,688,2530.0,384.87477360551736,32000.0,89.9,98.0,-1.4,-0.3,1.08,GOOD
1790984783404,689,2793.0,501.82018418278943,32000.0,89.9,98.0,-1.4,-0.3,1.08,GOOD
1790984783404,690,2690.0,587.2618451810818,32000.0,89.9,98.0,-1.4,-0.3,1.08,GOOD
1790984783404,691,2738.0,645.4039611833675,32000.0,89.9,98.0,-1.4,-0.3,1.08,GOOD
1790984783404,692,2731.0,669.2932779162384,32000.0,89.9,98.0,-1.4,-0.3,1.08,GOOD
1790984783404,693,1750.0,630.3739847755808,32000.0,89.9,98.0,-1.4,-0.3,1.08,GOOD
1790984783404,694,1729.0,458.7282363218558,32000.0,89.9,98.0,-1.4,-0.3,1.08,GOOD
1790984783404,695,1697.0,151.8003466426835,32000.0,89.9,98.0,-1.4,-0.3,1.08,GOOD
1790984783404,696,1647.0,-174.59021357963258,32000.0,89.9,98.0,-1.4,-0.3,1.08,GOOD
1790984783404,697,2078.0,-393.23276675944186,32000.0,89.9,98.0,-1.4,-0.3,1.08,GOOD
1790984783404,698,2110.0,-425.53205674108324,32000.0,89.9,98.0,-1.4,-0.3,1.08,GOOD
1790984783404,699,2135.0,-278.9394681484405,32000.0,89.9,98.0,-1.4,-0.3,1.08,GOOD
1790984783404,700,2121.0,-62.35701866288316,32000.0,89.9,98.0,-1.4,-0.3,1.08,GOOD
1790984783631,701,2018.0,93.7896444891826,32000.0,89.9,98.0,-1.4,-0.3,1.08,GOOD
1790984783631,702,2002.0,123.17393984684512,32000.0,89.9,98.0,-1.4,-0.3,1.08,GOOD
1790984783631,703,2046.0,54.81027991528503,32000.0,89.9,98.0,-1.4,-0.3,1.08,GOOD
1790984783631,704,1998.0,-26.6303714987035,32000.0,89.9,98.0,-1.4,-0.3,1.08,GOOD
1790984783631,705,1986.0,-65.96462777482367,32000.0,89.9,98.0,-1.4,-0.3,1.08,GOOD
1790984783631,706,1943.0,-71.90142578117555,32000.0,89.9,98.0,-1.4,-0.3,1.08,GOOD
1790984783631,707,1964.0,-77.6215132717117,32000.0,89.9,98.0,-1.4,-0.3,1.08,GOOD
1790984783631,708,1978.0,-93.24302544917194,32000.0,89.9,98.0,-1.4,-0.3,1.08,GOOD
1790984783631,709,2069.0,-98.9792492271592,32000.0,89.9,98.0,-1.4,-0.3,1.08,GOOD
1790984783631,710,2058.0,-75.68443663123671,32000.0,89.9,98.0,-1.4,-0.3,1.08,GOOD
1790984783631,711,2031.0,-34.6593793728126,32000.0,89.9,98.0,-1.4,-0.3,1.08,GOOD
1790984783631,712,2038.0,-6.149659722636356,32000.0,89.9,98.0,-1.4,-0.3,1.08,GOOD
1790984783631,713,2064.0,-1.2162925171062655,32000.0,89.9,98.0,-1.4,-0.3,1.08,GOOD
1790984783631,714,2066.0,-4.584999094892758,32000.0,89.9,98.0,-1.4,-0.3,1.08,GOOD
1790984783631,715,2044.0,-2.536760050698937,32000.0,89.9,98.0,-1.4,-0.3,1.08,GOOD
1790984783631,716,2016.0,0.37619157389096003,32000.0,89.9,98.0,-1.4,-0.3,1.08,GOOD
1790984783631,717,2072.0,-4.112827234588211,32000.0,89.9,98.0,-1.4,-0.3,1.08,GOOD
1790984783631,718,2100.0,-9.16724611364231,32000.0,89.9,98.0,-1.4,-0.3,1.08,GOOD
1790984783631,719,2116.0,-1.2337002028019475,32000.0,89.9,98.0,-1.4,-0.3,1.08,GOOD
1790984783631,720,2116.0,20.78618745314225,32000.0,89.9,98.0,-1.4,-0.3,1.08,GOOD
1790984783631,721,1965.0,39.56653172354643,32000.0,89.9,98.0,-1.4,-0.3,1.08,GOOD
1790984783631,722,1973.0,30.953233598926865,32000.0,89.9,98.0,-1.4,-0.3,1.08,GOOD
1790984783631,723,2004.0,-7.030595025843741,32000.0,89.9,98.0,-1.4,-0.3,1.08,GOOD
1790984783631,724,1981.0,-49.84534909566477,32000.0,89.9,98.0,-1.4,-0.3,1.08,GOOD
1790984783631,725,2139.0,-71.38387971866652,32000.0,89.9,98.0,-1.4,-0.3,1.08,GOOD
1790984783632,726,2114.0,-55.523223109516074,32000.0,89.9,98.0,-1.4,-0.3,1.08,GOOD
1790984783632,727,2118.0,-7.494602769532317,32000.0,89.9,98.0,-1.4,-0.3,1.08,GOOD
1790984783632,728,2125.0,45.13999812947997,32000.0,89.9,98.0,-1.4,-0.3,1.08,GOOD
1790984783632,729,2221.0,81.95282751688588,32000.0,89.9,98.0,-1.4,-0.3,1.08,GOOD
1790984783632,730,2224.0,105.32565291147873,32000.0,89.9,98.0,-1.4,-0.3,1.08,GOOD
1790984783632,731,2218.0,124.31647055320143,32000.0,89.9,98.0,-1.4,-0.3,1.08,GOOD
1790984783632,732,2224.0,141.63419719144468,32000.0,89.9,98.0,-1.4,-0.3,1.08,GOOD
1790984783632,733,2345.0,161.1281107927377,32000.0,89.9,98.0,-1.4,-0.3,1.08,GOOD
1790984783632,734,2327.0,189.06986273289274,32000.0,89.9,98.0,-1.4,-0.3,1.08,GOOD
1790984783632,735,2322.0,219.43191625608648,32000.0,89.9,98.0,-1.4,-0.3,1.08,GOOD
1790984783632,736,2293.0,237.60253352662093,32000.0,89.9,98.0,-1.4,-0.3,1.08,GOOD
1790984783632,737,2243.0,237.8145891795747,32000.0,89.9,98.0,-1.4,-0.3,1.08,GOOD
1790984783632,738,2247.0,222.4108306510189,32000.0,89.9,98.0,-1.4,-0.3,1.08,GOOD
1790984783632,739,2272.0,196.68840648618703,32000.0,89.9,98.0,-1.4,-0.3,1.08,GOOD
1790984783632,740,2268.0,169.80294818489887,32000.0,89.9,98.0,-1.4,-0.3,1.08,GOOD
1790984783632,741,2381.0,156.42627577986894,32000.0,89.9,98.0,-1.4,-0.3,1.08,GOOD
1790984783632,742,2375.0,172.78034792976757,32000.0,89.9,98.0,-1.4,-0.3,1.08,GOOD
1790984783632,743,2383.0,216.32859425507075,32000.0,89.9,98.0,-1.4,-0.3,1.08,GOOD
1790984783632,744,2381.0,260.1722357414459,32000.0,89.9,98.0,-1.4,-0.3,1.08,GOOD
1790984783632,745,2244.0,274.7600535421815,32000.0,89.9,98.0,-1.4,-0.3,1.08,GOOD
1790984783632,746,2238.0,246.9241036575156,32000.0,89.9,98.0,-1.4,-0.3,1.08,GOOD
1790984783632,747,2231.0,191.08100467997087,32000.0,89.9,98.0,-1.4,-0.3,1.08,GOOD
1790984783632,748,2234.0,137.475150185774,32000.0,89.9,98.0,-1.4,-0.3,1.08,GOOD
1790984783632,749,2124.0,98.64965639496899,32000.0,89.9,98.0,-1.4,-0.3,1.08,GOOD
1790984783632,750,2117.0,63.499543986419226,32000.0,89.9,98.0,-1.4,-0.3,1.08,GOOD
1790984783632,751,2097.0,25.472018405372935,32000.0,89.9,98.0,-1.4,-0.3,1.08,GOOD
1790984783632,752,2085.0,-7.14263545723613,32000.0,89.9,98.0,-1.4,-0.3,1.08,GOOD
1790984783632,753,2111.0,-27.924466577232273,32000.0,89.9,98.0,-1.4,-0.3,1.08,GOOD
1790984783632,754,2092.0,-38.938893127625946,32000.0,89.9,98.0,-1.4,-0.3,1.08,GOOD
1790984783632,755,2076.0,-45.165468408211424,32000.0,89.9,98.0,-1.4,-0.3,1.08,GOOD
1790984783632,756,2080.0,-48.931841767005025,32000.0,89.9,98.0,-1.4,-0.3,1.08,GOOD
1790984783632,757,1861.0,-57.585041206077946,32000.0,89.9,98.0,-1.4,-0.3,1.08,GOOD
1790984783632,758,1827.0,-93.35600280047332,32000.0,89.9,98.0,-1.4,-0.3,1.08,GOOD
1790984783632,759,1829.0,-165.5257597835024,32000.0,89.9,98.0,-1.4,-0.3,1.08,GOOD
1790984783632,760,1781.0,-249.1221691824602,32000.0,89.9,98.0,-1.4,-0.3,1.08,GOOD
1790984783632,761,1922.0,-307.6037535667183,32000.0,89.9,98.0,-1.4,-0.3,1.08,GOOD
1790984783632,762,1946.0,-314.02719443778557,32000.0,89.9,98.0,-1.4,-0.3,1.08,GOOD
1790984783632,763,1949.0,-268.86819683996197,32000.0,89.9,98.0,-1.4,-0.3,1.08,GOOD
1790984783632,764,1964.0,-204.4264708151435,32000.0,89.9,98.0,-1.4,-0.3,1.08,GOOD
1790984783632,765,1969.0,-154.026984556311,32000.0,89.9,98.0,-1.4,-0.3,1.08,GOOD
1790984783632,766,1970.0,-128.75147605753244,32000.0,89.9,98.0,-1.4,-0.3,1.08,GOOD
1790984783632,767,1957.0,-123.13471475894079,32000.0,89.9,98.0,-1.4,-0.3,1.08,GOOD
1790984783632,768,1981.0,-126.72356971331114,32000.0,89.9,98.0,-1.4,-0.3,1.08,GOOD
1790984783632,769,1937.0,-131.5187451043971,32000.0,89.9,98.0,-1.4,-0.3,1.08,GOOD
1790984783632,770,1942.0,-136.36815286870126,32000.0,89.9,98.0,-1.4,-0.3,1.08,GOOD
1790984783632,771,1922.0,-143.1542856999876,32000.0,89.9,98.0,-1.4,-0.3,1.08,GOOD
1790984783632,772,1923.0,-151.2941688188385,32000.0,89.9,98.0,-1.4,-0.3,1.08,GOOD
1790984783632,773,1885.0,-160.15999295485693,32000.0,89.9,98.0,-1.4,-0.3,1.08,GOOD
1790984783632,774,1887.0,-171.02190227365412,32000.0,89.9,98.0,-1.4,-0.3,1.08,GOOD
1790984783632,775,1886.0,-182.87330526812252,32000.0,89.9,98.0,-1.4,-0.3,1.08,GOOD
1790984783938,776,1872.0,-191.88957341361703,6.0,88.6,98.0,-1.3,-0.3,1.08,GOOD
1790984783938,777,2008.0,-191.36029241092973,2.0,88.6,98.0,-1.3,-0.3,1.08,GOOD
1790984783938,778,1998.0,-171.01068205785947,-3.0,88.6,98.0,-1.3,-0.3,1.08,GOOD
1790984783938,779,2007.0,-131.51060946768322,-7.0,88.6,98.0,-1.3,-0.3,1.08,GOOD
1790984783938,780,1987.0,-90.30552587939862,-11.0,88.6,98.0,-1.3,-0.3,1.08,GOOD
1790984783938,781,1907.0,-66.93389430873273,-16.0,88.6,98.0,-1.3,-0.3,1.08,GOOD
1790984783938,782,1900.0,-73.1219501081174,-22.0,88.6,98.0,-1.3,-0.3,1.08,GOOD
1790984783938,783,1911.0,-104.49520703688842,-24.0,88.6,98.0,-1.3,-0.3,1.08,GOOD
1790984783938,784,1908.0,-140.85104625854285,-27.0,88.6,98.0,-1.3,-0.3,1.08,GOOD
1790984783938,785,1991.0,-160.03299984819444,-28.0,88.6,98.0,-1.3,-0.3,1.08,GOOD
1790984783938,786,1991.0,-148.9582786111692,-28.0,88.6,98.0,-1.3,-0.3,1.08,GOOD
1790984783938,787,1994.0,-113.33628421917055,-30.0,88.6,98.0,-1.3,-0.3,1.08,GOOD
1790984783938,788,1992.0,-75.09693727671446,-29.0,88.6,98.0,-1.3,-0.3,1.08,GOOD
1790984783938,789,2051.0,-49.826356729053245,-30.0,88.6,98.0,-1.3,-0.3,1.08,GOOD
1790984783938,790,2050.0,-34.60128229612613,-31.0,88.6,98.0,-1.3,-0.3,1.08,GOOD
1790984783938,791,2046.0,-21.275801941042737,-30.0,88.6,98.0,-1.3,-0.3,1.08,GOOD
1790984783938,792,2045.0,-9.08477238748765,-30.0,88.6,98.0,-1.3,-0.3,1.08,GOOD
1790984783938,793,1688.0,-15.115792466102569,-30.0,88.6,98.0,-1.3,-0.3,1.08,GOOD
1790984783938,794,1734.0,-70.2717062450103,-30.0,88.6,98.0,-1.3,-0.3,1.08,GOOD
1790984783938,795,1747.0,-170.40214016642676,-33.0,88.6,98.0,-1.3,-0.3,1.08,GOOD
1790984783938,796,1750.0,-265.9802387854088,-33.0,88.6,98.0,-1.3,-0.3,1.08,GOOD
1790984783938,797,1969.0,-310.50661114865545,-34.0,88.6,98.0,-1.3,-0.3,1.08,GOOD
1790984783938,798,2123.0,-275.5137922671813,-32.0,88.6,98.0,-1.3,-0.3,1.08,GOOD
1790984783938,799,2100.0,-162.3554054652062,-34.0,88.6,98.0,-1.3,-0.3,1.08,GOOD
1790984783938,800,2093.0,-22.172317810433864,-32.0,88.6,98.0,-1.3,-0.3,1.08,GOOD
1790984783939,801,2053.0,78.49786374394249,32000.0,88.6,98.0,-1.3,-0.3,1.08,GOOD
1790984783939,802,1946.0,104.72248555671341,32000.0,88.6,98.0,-1.3,-0.3,1.08,GOOD
1790984783939,803,2065.0,66.8959598400417,32000.0,88.6,98.0,-1.3,-0.3,1.08,GOOD
1790984783939,804,2063.0,12.834340160204142,32000.0,88.6,98.0,-1.3,-0.3,1.08,GOOD
1790984783939,805,2038.0,-13.682366991285463,32000.0,88.6,98.0,-1.3,-0.3,1.08,GOOD
1790984783939,806,2039.0,-9.05125146735948,32000.0,88.6,98.0,-1.3,-0.3,1.08,GOOD
1790984783939,807,2036.0,6.94570991171636,32000.0,88.6,98.0,-1.3,-0.3,1.08,GOOD
1790984783939,808,2031.0,18.08237627149431,32000.0,88.6,98.0,-1.3,-0.3,1.08,GOOD
1790984783939,809,1980.0,16.31044646254849,32000.0,88.6,98.0,-1.3,-0.3,1.08,GOOD
1790984783939,810,2041.0,2.8820379721094254,32000.0,88.6,98.0,-1.3,-0.3,1.08,GOOD
1790984783939,811,2029.0,-9.73432746088431,32000.0,88.6,98.0,-1.3,-0.3,1.08,GOOD
1790984783939,812,2040.0,-10.609984049223362,32000.0,88.6,98.0,-1.3,-0.3,1.08,GOOD
1790984783939,813,2104.0,0.4951010827370176,32000.0,88.6,98.0,-1.3,-0.3,1.08,GOOD
1790984783939,814,2102.0,21.07137622346793,32000.0,88.6,98.0,-1.3,-0.3,1.08,GOOD
1790984783939,815,2088.0,45.869425522820585,32000.0,88.6,98.0,-1.3,-0.3,1.08,GOOD
1790984783939,816,2090.0,65.17744679618045,32000.0,88.6,98.0,-1.3,-0.3,1.08,GOOD
1790984783939,817,1997.0,69.89665563190917,32000.0,88.6,98.0,-1.3,-0.3,1.08,GOOD
1790984783939,818,2002.0,53.47382335528503,32000.0,88.6,98.0,-1.3,-0.3,1.08,GOOD
1790984783939,819,2011.0,20.31774623192753,32000.0,88.6,98.0,-1.3,-0.3,1.08,GOOD
1790984783939,820,2008.0,-12.28445185209411,32000.0,88.6,98.0,-1.3,-0.3,1.08,GOOD
1790984783939,821,2032.0,-29.40136256136058,32000.0,88.6,98.0,-1.3,-0.3,1.08,GOOD
1790984783939,822,2027.0,-27.525017102260396,32000.0,88.6,98.0,-1.3,-0.3,1.08,GOOD
1790984783939,823,2045.0,-12.873954999567802,32000.0,88.6,98.0,-1.3,-0.3,1.08,GOOD
1790984783939,824,2018.0,3.1943501575371203,32000.0,88.6,98.0,-1.3,-0.3,1.08,GOOD
1790984783939,825,2048.0,11.790278660829305,32000.0,88.6,98.0,-1.3,-0.3,1.08,GOOD
1790984784067,826,2032.0,12.76640344920042,32000.0,88.6,98.0,-1.3,-0.3,1.08,GOOD
1790984784067,827,2043.0,11.555245737774257,32000.0,88.6,98.0,-1.3,-0.3,1.08,GOOD
1790984784067,828,2030.0,11.462332631101642,32000.0,88.6,98.0,-1.3,-0.3,1.08,GOOD
1790984784067,829,2050.0,12.410381985862703,32000.0,88.6,98.0,-1.3,-0.3,1.08,GOOD
1790984784067,830,2055.0,14.315154735212936,32000.0,88.6,98.0,-1.3,-0.3,1.08,GOOD
1790984784067,831,2052.0,17.821637380362784,32000.0,88.6,98.0,-1.3,-0.3,1.08,GOOD
1790984784067,832,2062.0,22.746480061479993,32000.0,88.6,98.0,-1.3,-0.3,1.08,GOOD
1790984784067,833,1744.0,15.981104560478917,32000.0,88.6,98.0,-1.3,-0.3,1.08,GOOD
1790984784067,834,1747.0,-31.45264028845925,32000.0,88.6,98.0,-1.3,-0.3,1.08,GOOD
1790984784067,835,1752.0,-122.43239888220252,32000.0,88.6,98.0,-1.3,-0.3,1.08,GOOD
1790984784067,836,1724.0,-218.12610836346514,32000.0,88.6,98.0,-1.3,-0.3,1.08,GOOD
1790984784067,837,2425.0,-256.3074563421253,32000.0,88.6,98.0,-1.3,-0.3,1.08,GOOD
1790984784067,838,2464.0,-164.98402404415026,32000.0,88.6,98.0,-1.3,-0.3,1.08,GOOD
1790984784067,839,2511.0,58.056020812814225,32000.0,88.6,98.0,-1.3,-0.3,1.08,GOOD
1790984784067,840,2537.0,313.61114040657776,32000.0,88.6,98.0,-1.3,-0.3,1.08,GOOD
1790984784067,841,2351.0,493.1958459331027,32000.0,88.6,98.0,-1.3,-0.3,1.08,GOOD
1790984784067,842,2321.0,540.6527800311233,32000.0,88.6,98.0,-1.3,-0.3,1.08,GOOD
1790984784067,843,2290.0,466.51845628616803,32000.0,88.6,98.0,-1.3,-0.3,1.08,GOOD
1790984784067,844,2287.0,339.94199119558704,32000.0,88.6,98.0,-1.3,-0.3,1.08,GOOD
1790984784067,845,1896.0,222.24193447442786,32000.0,88.6,98.0,-1.3,-0.3,1.08,GOOD
1790984784067,846,1891.0,115.37793694445487,32000.0,88.6,98.0,-1.3,-0.3,1.08,GOOD
1790984784067,847,1868.0,3.5457126474957334,32000.0,88.6,98.0,-1.3,-0.3,1.08,GOOD
1790984784067,848,1848.0,-103.05865527668979,32000.0,88.6,98.0,-1.3,-0.3,1.08,GOOD
1790984784067,849,2101.0,-175.79046937410806,32000.0,88.6,98.0,-1.3,-0.3,1.08,GOOD
1790984784067,850,2127.0,-176.68413605523972,32000.0,88.6,98.0,-1.3,-0.3,1.08,GOOD
1790984784181,851,2118.0,-96.46346312008242,32000.0,88.6,98.0,-1.3,-0.3,1.08,GOOD
1790984784181,852,2092.0,14.971405386336855,32000.0,88.6,98.0,-1.3,-0.3,1.08,GOOD
1790984784181,853,2090.0,90.98540126916392,32000.0,88.6,98.0,-1.3,-0.3,1.08,GOOD
1790984784181,854,2077.0,102.71673277646642,32000.0,88.6,98.0,-1.3,-0.3,1.08,GOOD
1790984784181,855,2091.0,70.03109907720173,32000.0,88.6,98.0,-1.3,-0.3,1.08,GOOD
1790984784181,856,1941.0,29.31559135217973,32000.0,88.6,98.0,-1.3,-0.3,1.08,GOOD
1790984784181,857,1920.0,-6.800713153107497,32000.0,88.6,98.0,-1.3,-0.3,1.08,GOOD
1790984784181,858,1889.0,-47.42938738188185,32000.0,88.6,98.0,-1.3,-0.3,1.08,GOOD
1790984784181,859,1886.0,-96.60634265105688,32000.0,88.6,98.0,-1.3,-0.3,1.08,GOOD
1790984784181,860,2118.0,-134.79996903722218,32000.0,88.6,98.0,-1.3,-0.3,1.08,GOOD
1790984784181,861,2109.0,-124.38903101132941,32000.0,88.6,98.0,-1.3,-0.3,1.08,GOOD
1790984784181,862,2109.0,-56.60611241914991,32000.0,88.6,98.0,-1.3,-0.3,1.08,GOOD
1790984784181,863,2089.0,27.426885323226823,32000.0,88.6,98.0,-1.3,-0.3,1.08,GOOD
1790984784181,864,2110.0,81.34550141892662,32000.0,88.6,98.0,-1.3,-0.3,1.08,GOOD
1790984784181,865,2121.0,92.6705984687481,32000.0,88.6,98.0,-1.3,-0.3,1.08,GOOD
1790984784181,866,2140.0,80.1796186895496,32000.0,88.6,98.0,-1.3,-0.3,1.08,GOOD
1790984784181,867,2139.0,70.02726198175372,32000.0,88.6,98.0,-1.3,-0.3,1.08,GOOD
1790984784181,868,2080.0,71.79700451182816,32000.0,88.6,98.0,-1.3,-0.3,1.08,GOOD
1790984784181,869,2072.0,73.55444784616088,32000.0,88.6,98.0,-1.3,-0.3,1.08,GOOD
1790984784181,870,2081.0,62.237680543671985,32000.0,88.6,98.0,-1.3,-0.3,1.08,GOOD
1790984784181,871,2076.0,41.18990309584869,32000.0,88.6,98.0,-1.3,-0.3,1.08,GOOD
1790984784181,872,2219.0,28.857245621061058,32000.0,88.6,98.0,-1.3,-0.3,1.08,GOOD
1790984784181,873,2214.0,46.05421161406203,32000.0,88.6,98.0,-1.3,-0.3,1.08,GOOD
1790984784181,874,2225.0,91.88312104616709,32000.0,88.6,98.0,-1.3,-0.3,1.08,GOOD
1790984784181,875,2233.0,141.1270761272278,32000.0,88.6,98.0,-1.3,-0.3,1.08,GOOD
1790984784263,876,2282.0,174.34644042595772,32000.0,88.6,98.0,-1.4,-0.3,1.08,GOOD
1790984784263,877,2270.0,192.06488116860345,32000.0,88.6,98.0,-1.4,-0.3,1.08,GOOD
1790984784263,878,2262.0,200.59504267428645,32000.0,88.6,98.0,-1.4,-0.3,1.08,GOOD
1790984784263,879,2273.0,202.46654309419915,32000.0,88.6,98.0,-1.4,-0.3,1.08,GOOD
1790984784263,880,2343.0,202.85373722372879,32000.0,88.6,98.0,-1.4,-0.3,1.08,GOOD
1790984784263,881,2353.0,211.10681352410091,32000.0,88.6,98.0,-1.4,-0.3,1.08,GOOD
1790984784263,882,2352.0,229.31452659341304,32000.0,88.6,98.0,-1.4,-0.3,1.08,GOOD
1790984784263,883,2345.0,249.0202054718217,32000.0,88.6,98.0,-1.4,-0.3,1.08,GOOD
1790984784263,884,2219.0,256.50992353351427,32000.0,88.6,98.0,-1.4,-0.3,1.08,GOOD
1790984784263,885,2209.0,237.22224006758478,32000.0,88.6,98.0,-1.4,-0.3,1.08,GOOD
1790984784263,886,2212.0,190.89279382645367,32000.0,88.6,98.0,-1.4,-0.3,1.08,GOOD
1790984784263,887,2198.0,137.18096501074788,32000.0,88.6,98.0,-1.4,-0.3,1.08,GOOD
1790984784263,888,2355.0,102.9036402982946,32000.0,88.6,98.0,-1.4,-0.3,1.08,GOOD
1790984784263,889,2354.0,110.4790527744482,32000.0,88.6,98.0,-1.4,-0.3,1.08,GOOD
1790984784263,890,2366.0,157.9016233621931,32000.0,88.6,98.0,-1.4,-0.3,1.08,GOOD
1790984784263,891,2359.0,214.6429826764826,32000.0,88.6,98.0,-1.4,-0.3,1.08,GOOD
1790984784263,892,2351.0,250.650146188733,32000.0,88.6,98.0,-1.4,-0.3,1.08,GOOD
1790984784263,893,2353.0,256.90935725985014,32000.0,88.6,98.0,-1.4,-0.3,1.08,GOOD
1790984784263,894,2343.0,242.60512278408785,32000.0,88.6,98.0,-1.4,-0.3,1.08,GOOD
1790984784263,895,2350.0,222.85787661402063,32000.0,88.6,98.0,-1.4,-0.3,1.08,GOOD
1790984784263,896,2267.0,205.07591852015383,32000.0,88.6,98.0,-1.4,-0.3,1.08,GOOD
1790984784263,897,2234.0,183.34151981902258,32000.0,88.6,98.0,-1.4,-0.3,1.08,GOOD
1790984784263,898,2129.0,147.0139083658127,32000.0,88.6,98.0,-1.4,-0.3,1.08,GOOD
1790984784263,899,2084.0,91.47340524366972,32000.0,88.6,98.0,-1.4,-0.3,1.08,GOOD
1790984784263,900,2108.0,25.186941315771794,32000.0,88.6,98.0,-1.4,-0.3,1.08,GOOD
1790984784345,901,2134.0,-29.88624609364059,32000.0,88.6,98.0,-1.3,-0.3,1.08,GOOD
1790984784345,902,2116.0,-56.0248240357557,32000.0,88.6,98.0,-1.3,-0.3,1.08,GOOD
1790984784345,903,2118.0,-55.437564452071655,32000.0,88.6,98.0,-1.3,-0.3,1.08,GOOD
1790984784345,904,1847.0,-52.993157210883396,32000.0,88.6,98.0,-1.3,-0.3,1.08,GOOD
1790984784345,905,1855.0,-84.85676865417969,32000.0,88.6,98.0,-1.3,-0.3,1.08,GOOD
1790984784345,906,1831.0,-159.6223859253912,32000.0,88.6,98.0,-1.3,-0.3,1.08,GOOD
1790984784345,907,1823.0,-246.4077729266496,32000.0,88.6,98.0,-1.3,-0.3,1.08,GOOD
1790984784345,908,1967.0,-305.73185807668574,32000.0,88.6,98.0,-1.3,-0.3,1.08,GOOD
1790984784345,909,2001.0,-308.38762796777553,32000.0,88.6,98.0,-1.3,-0.3,1.08,GOOD
1790984784345,910,2013.0,-253.0268417536383,32000.0,88.6,98.0,-1.3,-0.3,1.08,GOOD
1790984784345,911,2013.0,-174.05633169170997,32000.0,88.6,98.0,-1.3,-0.3,1.08,GOOD
1790984784345,912,2001.0,-113.36716699840159,32000.0,88.6,98.0,-1.3,-0.3,1.08,GOOD
1790984784345,913,1969.0,-91.95048212769663,32000.0,88.6,98.0,-1.3,-0.3,1.08,GOOD
1790984784345,914,1956.0,-105.1799880600685,32000.0,88.6,98.0,-1.3,-0.3,1.08,GOOD
1790984784345,915,1929.0,-133.82525696130682,32000.0,88.6,98.0,-1.3,-0.3,1.08,GOOD
1790984784345,916,1855.0,-163.50240198023062,32000.0,88.6,98.0,-1.3,-0.3,1.08,GOOD
1790984784345,917,1961.0,-189.60337137095104,32000.0,88.6,98.0,-1.3,-0.3,1.08,GOOD
1790984784345,918,1932.0,-204.44827404251598,32000.0,88.6,98.0,-1.3,-0.3,1.08,GOOD
1790984784345,919,1949.0,-201.67361152115984,32000.0,88.6,98.0,-1.3,-0.3,1.08,GOOD
1790984784345,920,1890.0,-188.1037865180155,32000.0,88.6,98.0,-1.3,-0.3,1.08,GOOD
1790984784345,921,2032.0,-171.84615720468716,32000.0,88.6,98.0,-1.3,-0.3,1.08,GOOD
1790984784345,922,2014.0,-149.7959296052407,32000.0,88.6,98.0,-1.3,-0.3,1.08,GOOD
1790984784345,923,2041.0,-120.6730266798777,32000.0,88.6,98.0,-1.3,-0.3,1.08,GOOD
1790984784345,924,1887.0,-98.46576458008546,32000.0,88.6,98.0,-1.3,-0.3,1.08,GOOD
1790984784345,925,1901.0,-100.7777947295897,32000.0,88.6,98.0,-1.3,-0.3,1.08,GOOD
1790984784572,926,1887.0,-127.72681920350968,32000.0,88.6,98.0,-1.4,-0.2,1.08,GOOD
1790984784572,927,1867.0,-164.3311947906663,32000.0,88.6,98.0,-1.4,-0.2,1.08,GOOD
1790984784572,928,1984.0,-194.44826089494916,32000.0,88.6,98.0,-1.4,-0.2,1.08,GOOD
1790984784572,929,1995.0,-199.36386482839254,32000.0,88.6,98.0,-1.4,-0.2,1.08,GOOD
1790984784572,930,2021.0,-168.2316429981543,32000.0,88.6,98.0,-1.4,-0.2,1.08,GOOD
1790984784572,931,2014.0,-114.48496512378884,32000.0,88.6,98.0,-1.4,-0.2,1.08,GOOD
1790984784572,932,1842.0,-72.97194276620395,32000.0,88.6,98.0,-1.4,-0.2,1.08,GOOD
1790984784572,933,1830.0,-79.95157332947414,32000.0,88.6,98.0,-1.4,-0.2,1.08,GOOD
1790984784572,934,1836.0,-136.35247750179,32000.0,88.6,98.0,-1.4,-0.2,1.08,GOOD
1790984784572,935,1846.0,-202.54666682875092,32000.0,88.6,98.0,-1.4,-0.2,1.08,GOOD
1790984784572,936,2036.0,-233.8953753098047,32000.0,88.6,98.0,-1.4,-0.2,1.08,GOOD
1790984784572,937,2012.0,-208.10731794943027,32000.0,88.6,98.0,-1.4,-0.2,1.08,GOOD
1790984784572,938,2013.0,-141.00568039039982,32000.0,88.6,98.0,-1.4,-0.2,1.08,GOOD
1790984784572,939,2015.0,-72.80187301936436,32000.0,88.6,98.0,-1.4,-0.2,1.08,GOOD
1790984784572,940,1993.0,-30.94520641947383,32000.0,88.6,98.0,-1.4,-0.2,1.08,GOOD
1790984784572,941,1979.0,-21.33752043905996,32000.0,88.6,98.0,-1.4,-0.2,1.08,GOOD
1790984784572,942,1976.0,-37.47593094956049,32000.0,88.6,98.0,-1.4,-0.2,1.08,GOOD
1790984784572,943,1982.0,-63.617834409634796,32000.0,88.6,98.0,-1.4,-0.2,1.08,GOOD
1790984784572,944,1966.0,-82.4406453072165,32000.0,88.6,98.0,-1.4,-0.2,1.08,GOOD
1790984784572,945,1975.0,-86.67374576742563,32000.0,88.6,98.0,-1.4,-0.2,1.08,GOOD
1790984784572,946,1972.0,-81.29105308026905,32000.0,88.6,98.0,-1.4,-0.2,1.08,GOOD
1790984784572,947,1945.0,-76.73130213416539,32000.0,88.6,98.0,-1.4,-0.2,1.08,GOOD
1790984784572,948,2047.0,-76.16131661189803,32000.0,88.6,98.0,-1.4,-0.2,1.08,GOOD
1790984784572,949,2072.0,-67.0349379727486,32000.0,88.6,98.0,-1.4,-0.2,1.08,GOOD
1790984784572,950,2083.0,-38.486656327907426,32000.0,88.6,98.0,-1.4,-0.2,1.08,GOOD
1790984784573,951,2063.0,-0.49872797341492436,32000.0,88.6,98.0,-1.4,-0.2,1.08,GOOD
1790984784573,952,1966.0,23.613101050216322,32000.0,88.6,98.0,-1.4,-0.2,1.08,GOOD
1790984784573,953,1978.0,16.9431030155713,32000.0,88.6,98.0,-1.4,-0.2,1.08,GOOD
1790984784573,954,1989.0,-14.340626822188025,32000.0,88.6,98.0,-1.4,-0.2,1.08,GOOD
1790984784573,955,1988.0,-47.45160159234409,32000.0,88.6,98.0,-1.4,-0.2,1.08,GOOD
1790984784573,956,2068.0,-63.39208079760151,32000.0,88.6,98.0,-1.4,-0.2,1.08,GOOD
1790984784573,957,2045.0,-54.04953905785977,32000.0,88.6,98.0,-1.4,-0.2,1.08,GOOD
1790984784573,958,2042.0,-26.167892153126992,32000.0,88.6,98.0,-1.4,-0.2,1.08,GOOD
1790984784573,959,2044.0,2.065858843454052,32000.0,88.6,98.0,-1.4,-0.2,1.08,GOOD
1790984784573,960,2058.0,17.58872787162923,32000.0,88.6,98.0,-1.4,-0.2,1.08,GOOD
1790984784573,961,2050.0,19.499527868565732,32000.0,88.6,98.0,-1.4,-0.2,1.08,GOOD
1790984784573,962,2033.0,13.368729835834095,32000.0,88.6,98.0,-1.4,-0.2,1.08,GOOD
1790984784573,963,2020.0,5.049260684889536,32000.0,88.6,98.0,-1.4,-0.2,1.08,GOOD
1790984784573,964,2020.0,-2.2404600400125876,32000.0,88.6,98.0,-1.4,-0.2,1.08,GOOD
1790984784573,965,2035.0,-7.9001111349984185,32000.0,88.6,98.0,-1.4,-0.2,1.08,GOOD
1790984784573,966,2019.0,-12.562259817162033,32000.0,88.6,98.0,-1.4,-0.2,1.08,GOOD
1790984784573,967,1999.0,-17.417163291495598,32000.0,88.6,98.0,-1.4,-0.2,1.08,GOOD
1790984784573,968,1912.0,-26.113364810472895,32000.0,88.6,98.0,-1.4,-0.2,1.08,GOOD
1790984784573,969,1889.0,-45.65668763356639,32000.0,88.6,98.0,-1.4,-0.2,1.08,GOOD
1790984784573,970,1891.0,-78.34688146233131,32000.0,88.6,98.0,-1.4,-0.2,1.08,GOOD
1790984784573,971,2043.0,-109.22745979346956,32000.0,88.6,98.0,-1.4,-0.2,1.08,GOOD
1790984784573,972,2005.0,-113.12410618334788,32000.0,88.6,98.0,-1.4,-0.2,1.08,GOOD
1790984784573,973,2024.0,-83.50795143319048,32000.0,88.6,98.0,-1.4,-0.2,1.08,GOOD
1790984784573,974,2022.0,-38.74746408943702,32000.0,88.6,98.0,-1.4,-0.2,1.08,GOOD
1790984784573,975,1935.0,-4.495760929597912,32000.0,88.6,98.0,-1.4,-0.2,1.08,GOOD
1790984784745,976,1986.0,-0.259667477416337,32000.0,87.4,98.0,-1.4,-0.3,1.08,GOOD
1790984784745,977,1964.0,-23.4502075865614,32000.0,87.4,98.0,-1.4,-0.3,1.08,GOOD
1790984784745,978,1990.0,-50.77570870210442,32000.0,87.4,98.0,-1.4,-0.3,1.08,GOOD
1790984784745,979,2091.0,-57.5164183757383,32000.0,87.4,98.0,-1.4,-0.3,1.08,GOOD
1790984784745,980,2090.0,-31.559750721310465,32000.0,87.4,98.0,-1.4,-0.3,1.08,GOOD
1790984784745,981,2078.0,14.27778104530393,32000.0,87.4,98.0,-1.4,-0.3,1.08,GOOD
1790984784745,982,2060.0,51.52458022966424,32000.0,87.4,98.0,-1.4,-0.3,1.08,GOOD
1790984784745,983,1986.0,61.920240722358685,32000.0,87.4,98.0,-1.4,-0.3,1.08,GOOD
1790984784745,984,2022.0,46.149905837577606,32000.0,87.4,98.0,-1.4,-0.3,1.08,GOOD
1790984784745,985,2025.0,19.157905979833934,32000.0,87.4,98.0,-1.4,-0.3,1.08,GOOD
1790984784745,986,2021.0,-2.8412333593016275,32000.0,87.4,98.0,-1.4,-0.3,1.08,GOOD
1790984784745,987,2118.0,-9.987236865169079,32000.0,87.4,98.0,-1.4,-0.3,1.08,GOOD
1790984784745,988,2120.0,6.091658757929411,32000.0,87.4,98.0,-1.4,-0.3,1.08,GOOD
1790984784745,989,2133.0,43.94748382902963,32000.0,87.4,98.0,-1.4,-0.3,1.08,GOOD
1790984784745,990,2124.0,85.25650410671173,32000.0,87.4,98.0,-1.4,-0.3,1.08,GOOD
1790984784745,991,2016.0,106.14499129536496,32000.0,87.4,98.0,-1.4,-0.3,1.08,GOOD
1790984784745,992,2011.0,91.61101816507653,32000.0,87.4,98.0,-1.4,-0.3,1.08,GOOD
1790984784745,993,2000.0,49.2817157366117,32000.0,87.4,98.0,-1.4,-0.3,1.08,GOOD
1790984784745,994,2012.0,4.454465991928338,32000.0,87.4,98.0,-1.4,-0.3,1.08,GOOD
1790984784745,995,1922.0,-27.1871350242354,32000.0,87.4,98.0,-1.4,-0.3,1.08,GOOD
1790984784745,996,1907.0,-51.212459371967675,32000.0,87.4,98.0,-1.4,-0.3,1.08,GOOD
1790984784745,997,1902.0,-75.9374499336724,32000.0,87.4,98.0,-1.4,-0.3,1.08,GOOD
1790984784745,998,1905.0,-98.2086043314059,32000.0,87.4,98.0,-1.4,-0.3,1.08,GOOD
1790984784745,999,2093.0,-104.99330421503758,32000.0,87.4,98.0,-1.4,-0.3,1.08,GOOD
1790984784745,1000,2092.0,-79.69708842247846,32000.0,87.4,98.0,-1.4,-0.3,1.08,GOOD
1790984784850,1001,2105.0,-23.102776990594116,32000.0,87.4,98.0,-1.4,-0.3,1.08,GOOD
1790984784850,1002,2087.0,40.2077488542188,32000.0,87.4,98.0,-1.4,-0.3,1.08,GOOD
1790984784850,1003,2026.0,82.80661504020725,32000.0,87.4,98.0,-1.4,-0.3,1.08,GOOD
1790984784850,1004,2046.0,89.32345606666698,32000.0,87.4,98.0,-1.4,-0.3,1.08,GOOD
1790984784850,1005,1998.0,62.822436611683074,32000.0,87.4,98.0,-1.4,-0.3,1.08,GOOD
1790984784850,1006,1917.0,18.247364740955895,32000.0,87.4,98.0,-1.4,-0.3,1.08,GOOD
1790984784850,1007,2024.0,-25.782322746749685,32000.0,87.4,98.0,-1.4,-0.3,1.08,GOOD
1790984784850,1008,2007.0,-47.413386193020706,32000.0,87.4,98.0,-1.4,-0.3,1.08,GOOD
1790984784850,1009,2007.0,-40.785422770366466,32000.0,87.4,98.0,-1.4,-0.3,1.08,GOOD
1790984784850,1010,2267.0,-13.735066302687441,32000.0,87.4,98.0,-1.4,-0.3,1.08,GOOD
1790984784850,1011,2285.0,41.60985071748793,32000.0,87.4,98.0,-1.4,-0.3,1.08,GOOD
1790984784850,1012,2289.0,128.03450867429297,32000.0,87.4,98.0,-1.4,-0.3,1.08,GOOD
1790984784850,1013,2313.0,218.03131980451687,32000.0,87.4,98.0,-1.4,-0.3,1.08,GOOD
1790984784850,1014,2753.0,298.3285710526992,32000.0,87.4,98.0,-1.4,-0.3,1.08,GOOD
1790984784850,1015,2599.0,389.98010845305055,32000.0,87.4,98.0,-1.4,-0.3,1.08,GOOD
1790984784850,1016,2716.0,492.28329454564926,32000.0,87.4,98.0,-1.4,-0.3,1.08,GOOD
1790984784850,1017,2702.0,577.8056133944461,32000.0,87.4,98.0,-1.4,-0.3,1.08,GOOD
1790984784850,1018,2100.0,610.9609406752808,32000.0,87.4,98.0,-1.4,-0.3,1.08,GOOD
1790984784850,1019,2070.0,534.8537501062099,32000.0,87.4,98.0,-1.4,-0.3,1.08,GOOD
1790984784850,1020,2019.0,339.96476444963184,32000.0,87.4,98.0,-1.4,-0.3,1.08,GOOD
1790984784850,1021,1975.0,106.7735284581415,32000.0,87.4,98.0,-1.4,-0.3,1.08,GOOD
1790984784850,1022,1939.0,-75.35011437409543,32000.0,87.4,98.0,-1.4,-0.3,1.08,GOOD
1790984784850,1023,1979.0,-165.34727597565046,32000.0,87.4,98.0,-1.4,-0.3,1.08,GOOD
1790984784850,1024,1988.0,-168.06078261583394,32000.0,87.4,98.0,-1.4,-0.3,1.08,GOOD
1790984784850,1025,1968.0,-125.15060135242508,32000.0,87.4,98.0,-1.4,-0.3,1.08,GOOD
1790984784853,1026,2002.0,-87.94788124920191,32000.0,87.4,98.0,-1.4,-0.3,1.08,GOOD
1790984784853,1027,2035.0,-75.93132920370464,32000.0,87.4,98.0,-1.4,-0.3,1.08,GOOD
1790984784853,1028,2047.0,-70.8456741143127,32000.0,87.4,98.0,-1.4,-0.3,1.08,GOOD
1790984784853,1029,2039.0,-53.4672224471823,32000.0,87.4,98.0,-1.4,-0.3,1.08,GOOD
1790984784853,1030,2094.0,-27.322682309228142,32000.0,87.4,98.0,-1.4,-0.3,1.08,GOOD
1790984784853,1031,2071.0,-6.708772805727909,32000.0,87.4,98.0,-1.4,-0.3,1.08,GOOD
1790984784853,1032,2086.0,1.5282556322217424,32000.0,87.4,98.0,-1.4,-0.3,1.08,GOOD
1790984784853,1033,2097.0,4.366755308596767,32000.0,87.4,98.0,-1.4,-0.3,1.08,GOOD
1790984784853,1034,1944.0,7.163745644080399,32000.0,87.4,98.0,-1.4,-0.3,1.08,GOOD
1790984784853,1035,1911.0,-5.920597938118693,32000.0,87.4,98.0,-1.4,-0.3,1.08,GOOD
1790984784853,1036,1904.0,-50.43201176182069,32000.0,87.4,98.0,-1.4,-0.3,1.08,GOOD
1790984784853,1037,1914.0,-112.01278734463854,32000.0,87.4,98.0,-1.4,-0.3,1.08,GOOD
1790984784853,1038,2130.0,-151.23408727571874,32000.0,87.4,98.0,-1.4,-0.3,1.08,GOOD
1790984784853,1039,2099.0,-131.92969199033973,32000.0,87.4,98.0,-1.4,-0.3,1.08,GOOD
1790984784853,1040,1992.0,-65.35248181484636,32000.0,87.4,98.0,-1.4,-0.3,1.08,GOOD
1790984784853,1041,2010.0,-7.207080848269438,32000.0,87.4,98.0,-1.4,-0.3,1.08,GOOD
1790984784853,1042,1958.0,5.121614034677584,32000.0,87.4,98.0,-1.4,-0.3,1.08,GOOD
1790984784853,1043,2093.0,-17.7648720974938,32000.0,87.4,98.0,-1.4,-0.3,1.08,GOOD
1790984784853,1044,2101.0,-38.793699210388674,32000.0,87.4,98.0,-1.4,-0.3,1.08,GOOD
1790984784853,1045,2113.0,-31.20849045104858,32000.0,87.4,98.0,-1.4,-0.3,1.08,GOOD
1790984784853,1046,2107.0,1.3685617136104877,32000.0,87.4,98.0,-1.4,-0.3,1.08,GOOD
1790984784853,1047,2040.0,35.77348388323092,32000.0,87.4,98.0,-1.4,-0.3,1.08,GOOD
1790984784853,1048,2040.0,47.6562618406637,32000.0,87.4,98.0,-1.4,-0.3,1.08,GOOD
1790984784853,1049,2166.0,34.64549668754833,32000.0,87.4,98.0,-1.4,-0.3,1.08,GOOD
1790984784853,1050,2147.0,22.658975341231848,32000.0,87.4,98.0,-1.4,-0.3,1.08,GOOD
1790984785043,1051,2161.0,33.08351943933801,32000.0,87.4,98.0,-1.3,-0.3,1.08,GOOD
1790984785043,1052,2157.0,61.61295127828405,32000.0,87.4,98.0,-1.3,-0.3,1.08,GOOD
1790984785043,1053,2114.0,89.25176133987858,32000.0,87.4,98.0,-1.3,-0.3,1.08,GOOD
1790984785043,1054,2108.0,96.5826656653673,32000.0,87.4,98.0,-1.3,-0.3,1.08,GOOD
1790984785043,1055,2095.0,78.42461356911679,32000.0,87.4,98.0,-1.3,-0.3,1.08,GOOD
1790984785043,1056,2092.0,48.742007419738776,32000.0,87.4,98.0,-1.3,-0.3,1.08,GOOD
1790984785043,1057,2308.0,34.65789649452688,32000.0,87.4,98.0,-1.3,-0.3,1.08,GOOD
1790984785043,1058,2298.0,62.17029934107533,32000.0,87.4,98.0,-1.3,-0.3,1.08,GOOD
1790984785043,1059,2305.0,125.64878251749607,32000.0,87.4,98.0,-1.3,-0.3,1.08,GOOD
1790984785043,1060,2290.0,189.11896227222195,32000.0,87.4,98.0,-1.3,-0.3,1.08,GOOD
1790984785043,1061,2364.0,229.4272766709517,32000.0,87.4,98.0,-1.3,-0.3,1.08,GOOD
1790984785043,1062,2258.0,247.09712427819358,32000.0,87.4,98.0,-1.3,-0.3,1.08,GOOD
1790984785043,1063,2371.0,245.85280506929996,32000.0,87.4,98.0,-1.3,-0.3,1.08,GOOD
1790984785043,1064,2367.0,235.35853079809885,32000.0,87.4,98.0,-1.3,-0.3,1.08,GOOD
1790984785043,1065,2403.0,233.3361284537509,32000.0,87.4,98.0,-1.3,-0.3,1.08,GOOD
1790984785043,1066,2411.0,248.65815302268243,32000.0,87.4,98.0,-1.3,-0.3,1.08,GOOD
1790984785043,1067,2408.0,274.8755370852592,32000.0,87.4,98.0,-1.3,-0.3,1.08,GOOD
1790984785043,1068,2418.0,296.7016294060089,32000.0,87.4,98.0,-1.3,-0.3,1.08,GOOD
1790984785043,1069,2171.0,293.30609586796766,32000.0,87.4,98.0,-1.3,-0.3,1.08,GOOD
1790984785043,1070,2294.0,250.0995880664765,32000.0,87.4,98.0,-1.3,-0.3,1.08,GOOD
1790984785043,1071,2284.0,186.96258522179144,32000.0,87.4,98.0,-1.3,-0.3,1.08,GOOD
1790984785043,1072,2286.0,141.9859458234218,32000.0,87.4,98.0,-1.3,-0.3,1.08,GOOD
1790984785043,1073,2106.0,118.72411536481118,32000.0,87.4,98.0,-1.3,-0.3,1.08,GOOD
1790984785043,1074,2042.0,87.05364921007416,32000.0,87.4,98.0,-1.3,-0.3,1.08,GOOD
1790984785043,1075,2099.0,33.04811213216355,32000.0,87.4,98.0,-1.3,-0.3,1.08,GOOD
1790984785317,1076,2069.0,-22.79882058924301,12.0,87.4,98.0,-1.3,-0.2,1.08,GOOD
1790984785317,1077,2040.0,-62.00645255085355,12.0,87.4,98.0,-1.3,-0.2,1.08,GOOD
1790984785317,1078,2046.0,-86.84438642215997,14.0,87.4,98.0,-1.3,-0.2,1.08,GOOD
1790984785317,1079,2048.0,-99.66297432484609,13.0,87.4,98.0,-1.3,-0.2,1.08,GOOD
1790984785317,1080,1979.0,-100.65985488391834,12.0,87.4,98.0,-1.3,-0.2,1.08,GOOD
1790984785317,1081,2024.0,-99.8130694158309,10.0,87.4,98.0,-1.3,-0.2,1.08,GOOD
1790984785317,1082,2027.0,-106.00666342988762,12.0,87.4,98.0,-1.3,-0.2,1.08,GOOD
1790984785317,1083,2028.0,-115.67475352532405,12.0,87.4,98.0,-1.3,-0.2,1.08,GOOD
1790984785317,1084,2046.0,-119.10292509771737,12.0,87.4,98.0,-1.3,-0.2,1.08,GOOD
1790984785317,1085,1923.0,-114.27912039142693,9.0,87.4,98.0,-1.3,-0.2,1.08,GOOD
1790984785317,1086,1848.0,-119.12807359012669,7.0,87.4,98.0,-1.3,-0.2,1.08,GOOD
1790984785317,1087,1891.0,-152.48128922198714,6.0,87.4,98.0,-1.3,-0.2,1.08,GOOD
1790984785317,1088,1873.0,-203.93657728506952,8.0,87.4,98.0,-1.3,-0.2,1.08,GOOD
1790984785317,1089,1945.0,-243.14854285242126,9.0,87.4,98.0,-1.3,-0.2,1.08,GOOD
1790984785317,1090,1961.0,-246.71700608267318,5.0,87.4,98.0,-1.3,-0.2,1.08,GOOD
1790984785317,1091,1924.0,-216.1135889620817,4.0,87.4,98.0,-1.3,-0.2,1.08,GOOD
1790984785317,1092,1924.0,-178.25798004554747,2.0,87.4,98.0,-1.3,-0.2,1.08,GOOD
1790984785317,1093,1902.0,-159.83280706555718,2.0,87.4,98.0,-1.3,-0.2,1.08,GOOD
1790984785317,1094,1884.0,-166.40108928623914,3.0,87.4,98.0,-1.3,-0.2,1.08,GOOD
1790984785317,1095,1879.0,-186.53648247396936,1.0,87.4,98.0,-1.3,-0.2,1.08,GOOD
1790984785317,1096,1982.0,-201.02506002005677,4.0,87.4,98.0,-1.3,-0.2,1.08,GOOD
1790984785317,1097,1986.0,-192.75325621193548,7.0,87.4,98.0,-1.3,-0.2,1.08,GOOD
1790984785317,1098,2026.0,-160.96800122329114,8.0,87.4,98.0,-1.3,-0.2,1.08,GOOD
1790984785317,1099,1884.0,-125.13513082758838,9.0,87.4,98.0,-1.3,-0.2,1.08,GOOD
1790984785317,1100,2007.0,-106.35199049758444,11.0,87.4,98.0,-1.3,-0.2,1.08,GOOD
1790984785318,1101,1994.0,-102.88341654118396,32000.0,87.4,98.0,-1.3,-0.2,1.08,GOOD
1790984785318,1102,1990.0,-101.00835117561017,32000.0,87.4,98.0,-1.3,-0.2,1.08,GOOD
1790984785318,1103,1994.0,-98.51892964642596,32000.0,87.4,98.0,-1.3,-0.2,1.08,GOOD
1790984785318,1104,1988.0,-96.48729182196746,32000.0,87.4,98.0,-1.3,-0.2,1.08,GOOD
1790984785318,1105,1937.0,-93.57043784330695,32000.0,87.4,98.0,-1.3,-0.2,1.08,GOOD
1790984785318,1106,1933.0,-94.92580556211863,32000.0,87.4,98.0,-1.3,-0.2,1.08,GOOD
1790984785318,1107,1922.0,-107.3499237186654,32000.0,87.4,98.0,-1.3,-0.2,1.08,GOOD
1790984785318,1108,1900.0,-129.51031726142674,32000.0,87.4,98.0,-1.3,-0.2,1.08,GOOD
1790984785318,1109,1910.0,-152.10460327815645,32000.0,87.4,98.0,-1.3,-0.2,1.08,GOOD
1790984785318,1110,2023.0,-159.5756502445326,32000.0,87.4,98.0,-1.3,-0.2,1.08,GOOD
1790984785318,1111,2028.0,-138.5095645264263,32000.0,87.4,98.0,-1.3,-0.2,1.08,GOOD
1790984785318,1112,2015.0,-96.45795180213617,32000.0,87.4,98.0,-1.3,-0.2,1.08,GOOD
1790984785318,1113,2016.0,-57.85836452483186,32000.0,87.4,98.0,-1.3,-0.2,1.08,GOOD
1790984785318,1114,1969.0,-38.6218257734051,32000.0,87.4,98.0,-1.3,-0.2,1.08,GOOD
1790984785318,1115,1984.0,-39.201308383021335,32000.0,87.4,98.0,-1.3,-0.2,1.08,GOOD
1790984785318,1116,1978.0,-52.35919323851445,32000.0,87.4,98.0,-1.3,-0.2,1.08,GOOD
1790984785318,1117,1982.0,-69.11597858378565,32000.0,87.4,98.0,-1.3,-0.2,1.08,GOOD
1790984785318,1118,1972.0,-82.18736299190263,32000.0,87.4,98.0,-1.3,-0.2,1.08,GOOD
1790984785318,1119,2034.0,-84.32296630820568,32000.0,87.4,98.0,-1.3,-0.2,1.08,GOOD
1790984785318,1120,2029.0,-70.07878213680219,32000.0,87.4,98.0,-1.3,-0.2,1.08,GOOD
1790984785318,1121,2023.0,-45.73598452203587,32000.0,87.4,98.0,-1.3,-0.2,1.08,GOOD
1790984785318,1122,1863.0,-33.07356397496716,32000.0,87.4,98.0,-1.3,-0.2,1.08,GOOD
1790984785318,1123,1843.0,-54.21634346648645,32000.0,87.4,98.0,-1.3,-0.2,1.08,GOOD
1790984785318,1124,1791.0,-108.19184968155028,32000.0,87.4,98.0,-1.3,-0.2,1.08,GOOD
1790984785318,1125,1863.0,-169.6762237118677,32000.0,87.4,98.0,-1.3,-0.2,1.08,GOOD
1790984785319,1126,2009.0,-205.15352904972968,32000.0,87.4,98.0,-1.3,-0.2,1.08,GOOD
1790984785319,1127,2020.0,-190.02002606341608,32000.0,87.4,98.0,-1.3,-0.2,1.08,GOOD
1790984785319,1128,2025.0,-129.19129714445734,32000.0,87.4,98.0,-1.3,-0.2,1.08,GOOD
1790984785319,1129,2021.0,-54.56226251094195,32000.0,87.4,98.0,-1.3,-0.2,1.08,GOOD
1790984785319,1130,2008.0,0.8976953900874647,32000.0,87.4,98.0,-1.3,-0.2,1.08,GOOD
1790984785319,1131,1985.0,18.71562292149164,32000.0,87.4,98.0,-1.3,-0.2,1.08,GOOD
1790984785319,1132,1874.0,-3.5921486299468968,32000.0,87.4,98.0,-1.3,-0.2,1.08,GOOD
1790984785319,1133,2080.0,-45.827231209352014,32000.0,87.4,98.0,-1.3,-0.2,1.08,GOOD
1790984785319,1134,2081.0,-64.9535827953023,32000.0,87.4,98.0,-1.3,-0.2,1.08,GOOD
1790984785319,1135,2073.0,-38.274786707270295,32000.0,87.4,98.0,-1.3,-0.2,1.08,GOOD
1790984785319,1136,2083.0,9.548672433728319,32000.0,87.4,98.0,-1.3,-0.2,1.08,GOOD
1790984785319,1137,2010.0,43.227767291827355,32000.0,87.4,98.0,-1.3,-0.2,1.08,GOOD
1790984785319,1138,2009.0,47.875128087400064,32000.0,87.4,98.0,-1.3,-0.2,1.08,GOOD
1790984785319,1139,1986.0,28.351532669440896,32000.0,87.4,98.0,-1.3,-0.2,1.08,GOOD
1790984785319,1140,1968.0,-2.5048340868407504,32000.0,87.4,98.0,-1.3,-0.2,1.08,GOOD
1790984785319,1141,1988.0,-33.614615412372544,32000.0,87.4,98.0,-1.3,-0.2,1.08,GOOD
1790984785319,1142,1986.0,-54.358430486696186,32000.0,87.4,98.0,-1.3,-0.2,1.08,GOOD
1790984785319,1143,1974.0,-58.11966495928648,32000.0,87.4,98.0,-1.3,-0.2,1.08,GOOD
1790984785319,1144,1953.0,-50.70881545476328,32000.0,87.4,98.0,-1.3,-0.2,1.08,GOOD
1790984785319,1145,2067.0,-41.29930090399509,32000.0,87.4,98.0,-1.3,-0.2,1.08,GOOD
1790984785319,1146,2075.0,-27.196941205016138,32000.0,87.4,98.0,-1.3,-0.2,1.08,GOOD
1790984785319,1147,2083.0,-2.519686418417563,32000.0,87.4,98.0,-1.3,-0.2,1.08,GOOD
1790984785319,1148,2087.0,28.650210220842684,32000.0,87.4,98.0,-1.3,-0.2,1.08,GOOD
1790984785319,1149,2055.0,55.938576093442904,32000.0,87.4,98.0,-1.3,-0.2,1.08,GOOD
1790984785319,1150,2069.0,68.62798583709757,32000.0,87.4,98.0,-1.3,-0.2,1.08,GOOD
1790984785503,1151,2054.0,62.77057870938492,32000.0,85.3,98.0,-1.3,-0.3,1.08,GOOD
1790984785503,1152,2072.0,46.38297686403505,32000.0,85.3,98.0,-1.3,-0.3,1.08,GOOD
1790984785503,1153,2001.0,31.142133811287074,32000.0,85.3,98.0,-1.3,-0.3,1.08,GOOD
1790984785503,1154,2001.0,19.543760786614474,32000.0,85.3,98.0,-1.3,-0.3,1.08,GOOD
1790984785503,1155,2008.0,7.263308621966812,32000.0,85.3,98.0,-1.3,-0.3,1.08,GOOD
1790984785503,1156,1988.0,-7.360506178473025,32000.0,85.3,98.0,-1.3,-0.3,1.08,GOOD
1790984785503,1157,1891.0,-26.577517334352017,32000.0,85.3,98.0,-1.3,-0.3,1.08,GOOD
1790984785503,1158,1935.0,-52.537485017708285,32000.0,85.3,98.0,-1.3,-0.3,1.08,GOOD
1790984785503,1159,1945.0,-76.29133344389909,32000.0,85.3,98.0,-1.3,-0.3,1.08,GOOD
1790984785503,1160,1925.0,-87.17879187851013,32000.0,85.3,98.0,-1.3,-0.3,1.08,GOOD
1790984785503,1161,2521.0,-65.73879697456331,32000.0,85.3,98.0,-1.3,-0.3,1.08,GOOD
1790984785503,1162,2534.0,32.79233048088619,32000.0,85.3,98.0,-1.3,-0.3,1.08,GOOD
1790984785503,1163,2573.0,214.18210986568033,32000.0,85.3,98.0,-1.3,-0.3,1.08,GOOD
1790984785503,1164,2589.0,409.9395185769361,32000.0,85.3,98.0,-1.3,-0.3,1.08,GOOD
1790984785503,1165,2780.0,557.3222746745193,32000.0,85.3,98.0,-1.3,-0.3,1.08,GOOD
1790984785503,1166,2733.0,644.8452439681738,32000.0,85.3,98.0,-1.3,-0.3,1.08,GOOD
1790984785503,1167,2702.0,678.4301508823175,32000.0,85.3,98.0,-1.3,-0.3,1.08,GOOD
1790984785503,1168,2692.0,667.4792829120614,32000.0,85.3,98.0,-1.3,-0.3,1.08,GOOD
1790984785503,1169,1925.0,607.9487110333328,32000.0,85.3,98.0,-1.3,-0.3,1.08,GOOD
1790984785503,1170,1882.0,456.4793051449587,32000.0,85.3,98.0,-1.3,-0.3,1.08,GOOD
1790984785503,1171,1811.0,204.27597491742486,32000.0,85.3,98.0,-1.3,-0.3,1.08,GOOD
1790984785503,1172,1779.0,-71.72430077879322,32000.0,85.3,98.0,-1.3,-0.3,1.08,GOOD
1790984785503,1173,1780.0,-283.1162046689278,32000.0,85.3,98.0,-1.3,-0.3,1.08,GOOD
1790984785503,1174,1819.0,-382.4585828766486,32000.0,85.3,98.0,-1.3,-0.3,1.08,GOOD
1790984785503,1175,1818.0,-369.71645197871237,32000.0,85.3,98.0,-1.3,-0.3,1.08,GOOD
1790984785578,1176,1758.0,-298.8145830864772,32000.0,85.3,98.0,-1.3,-0.3,1.08,GOOD
1790984785578,1177,1971.0,-238.70689536707255,32000.0,85.3,98.0,-1.3,-0.3,1.08,GOOD
1790984785578,1178,2013.0,-206.04437735111946,32000.0,85.3,98.0,-1.3,-0.3,1.08,GOOD
1790984785578,1179,2052.0,-168.51705995511037,32000.0,85.3,98.0,-1.3,-0.3,1.08,GOOD
1790984785578,1180,2059.0,-104.23847161133045,32000.0,85.3,98.0,-1.3,-0.3,1.08,GOOD
1790984785578,1181,2118.0,-26.20623167940892,32000.0,85.3,98.0,-1.3,-0.3,1.08,GOOD
1790984785578,1182,2081.0,33.21836557933441,32000.0,85.3,98.0,-1.3,-0.3,1.08,GOOD
1790984785578,1183,2106.0,51.46959963582678,32000.0,85.3,98.0,-1.3,-0.3,1.08,GOOD
1790984785578,1184,2130.0,40.87341403361787,32000.0,85.3,98.0,-1.3,-0.3,1.08,GOOD
1790984785578,1185,2282.0,42.34079176065012,32000.0,85.3,98.0,-1.3,-0.3,1.08,GOOD
1790984785578,1186,2230.0,82.22257891172904,32000.0,85.3,98.0,-1.3,-0.3,1.08,GOOD
1790984785578,1187,2225.0,138.43532754036175,32000.0,85.3,98.0,-1.3,-0.3,1.08,GOOD
1790984785578,1188,2240.0,170.9617090316773,32000.0,85.3,98.0,-1.3,-0.3,1.08,GOOD
1790984785578,1189,1878.0,159.45515808587692,32000.0,85.3,98.0,-1.3,-0.3,1.08,GOOD
1790984785578,1190,1877.0,94.03093364066244,32000.0,85.3,98.0,-1.3,-0.3,1.08,GOOD
1790984785578,1191,1698.0,-20.84486013187762,32000.0,85.3,98.0,-1.3,-0.3,1.08,GOOD
1790984785578,1192,1683.0,-161.3591553660481,32000.0,85.3,98.0,-1.3,-0.3,1.08,GOOD
1790984785578,1193,2129.0,-278.52833906610437,32000.0,85.3,98.0,-1.3,-0.3,1.08,GOOD
1790984785578,1194,2168.0,-295.23505660362935,32000.0,85.3,98.0,-1.3,-0.3,1.08,GOOD
1790984785578,1195,2180.0,-183.74618404650815,32000.0,85.3,98.0,-1.3,-0.3,1.08,GOOD
1790984785578,1196,2159.0,-13.168257134723575,32000.0,85.3,98.0,-1.3,-0.3,1.08,GOOD
1790984785578,1197,2111.0,120.3079564646125,32000.0,85.3,98.0,-1.3,-0.3,1.08,GOOD
1790984785578,1198,2133.0,165.35697634062686,32000.0,85.3,98.0,-1.3,-0.3,1.08,GOOD
1790984785578,1199,2164.0,135.30078223763934,32000.0,85.3,98.0,-1.3,-0.3,1.08,GOOD
1790984785578,1200,2168.0,85.15825608195088,32000.0,85.3,98.0,-1.3,-0.3,1.08,GOOD
1790984785754,1201,2087.0,58.88667566944288,32000.0,85.3,98.0,-1.3,-0.4,1.08,GOOD
1790984785754,1202,2036.0,55.32214159285305,32000.0,85.3,98.0,-1.3,-0.4,1.08,GOOD
1790984785754,1203,2006.0,44.97037049645434,32000.0,85.3,98.0,-1.3,-0.4,1.08,GOOD
1790984785754,1204,2008.0,10.194091767371813,32000.0,85.3,98.0,-1.3,-0.4,1.08,GOOD
1790984785754,1205,2264.0,-26.8591483692402,32000.0,85.3,98.0,-1.3,-0.4,1.08,GOOD
1790984785754,1206,2265.0,-17.159778032425415,32000.0,85.3,98.0,-1.3,-0.4,1.08,GOOD
1790984785754,1207,2265.0,54.30416190753121,32000.0,85.3,98.0,-1.3,-0.4,1.08,GOOD
1790984785754,1208,2274.0,145.58458028911815,32000.0,85.3,98.0,-1.3,-0.4,1.08,GOOD
1790984785754,1209,2341.0,210.70774053608864,32000.0,85.3,98.0,-1.3,-0.4,1.08,GOOD
1790984785754,1210,2308.0,238.24002435454315,32000.0,85.3,98.0,-1.3,-0.4,1.08,GOOD
1790984785754,1211,2239.0,236.59181493735863,32000.0,85.3,98.0,-1.3,-0.4,1.08,GOOD
1790984785754,1212,2308.0,218.3819824371453,32000.0,85.3,98.0,-1.3,-0.4,1.08,GOOD
1790984785754,1213,2213.0,197.99169027288744,32000.0,85.3,98.0,-1.3,-0.4,1.08,GOOD
1790984785754,1214,2245.0,178.86305540633714,32000.0,85.3,98.0,-1.3,-0.4,1.08,GOOD
1790984785754,1215,2229.0,156.2333794775329,32000.0,85.3,98.0,-1.3,-0.4,1.08,GOOD
1790984785754,1216,2250.0,134.81115249687173,32000.0,85.3,98.0,-1.3,-0.4,1.08,GOOD
1790984785754,1217,2286.0,126.91824048307005,32000.0,85.3,98.0,-1.3,-0.4,1.08,GOOD
1790984785754,1218,2302.0,139.05577518823884,32000.0,85.3,98.0,-1.3,-0.4,1.08,GOOD
1790984785754,1219,2311.0,163.2175431638043,32000.0,85.3,98.0,-1.3,-0.4,1.08,GOOD
1790984785754,1220,2311.0,183.52613036718304,32000.0,85.3,98.0,-1.3,-0.4,1.08,GOOD
1790984785754,1221,2128.0,184.9445670218962,32000.0,85.3,98.0,-1.3,-0.4,1.08,GOOD
1790984785754,1222,2093.0,154.1418969880871,32000.0,85.3,98.0,-1.3,-0.4,1.08,GOOD
1790984785754,1223,2108.0,94.00523332935138,32000.0,85.3,98.0,-1.3,-0.4,1.08,GOOD
1790984785754,1224,2115.0,28.900430447103453,32000.0,85.3,98.0,-1.3,-0.4,1.08,GOOD
1790984785754,1225,2093.0,-19.44165150445923,32000.0,85.3,98.0,-1.3,-0.4,1.08,GOOD
1790984785755,1226,2067.0,-45.48634743124376,32000.0,85.3,98.0,-1.3,-0.4,1.08,GOOD
1790984785755,1227,2037.0,-53.28379339746135,32000.0,85.3,98.0,-1.3,-0.4,1.08,GOOD
1790984785755,1228,2043.0,-52.26083017442369,32000.0,85.3,98.0,-1.3,-0.4,1.08,GOOD
1790984785755,1229,2092.0,-52.58946470517695,32000.0,85.3,98.0,-1.3,-0.4,1.08,GOOD
1790984785755,1230,2102.0,-56.30431078369703,32000.0,85.3,98.0,-1.3,-0.4,1.08,GOOD
1790984785755,1231,2076.0,-57.37222556301836,32000.0,85.3,98.0,-1.3,-0.4,1.08,GOOD
1790984785755,1232,1964.0,-54.84360212565451,32000.0,85.3,98.0,-1.3,-0.4,1.08,GOOD
1790984785755,1233,1842.0,-64.95542948488925,32000.0,85.3,98.0,-1.3,-0.4,1.08,GOOD
1790984785755,1234,1844.0,-108.73928947753674,32000.0,85.3,98.0,-1.3,-0.4,1.08,GOOD
1790984785755,1235,1832.0,-182.85598731095993,32000.0,85.3,98.0,-1.3,-0.4,1.08,GOOD
1790984785755,1236,1814.0,-257.60200492824987,32000.0,85.3,98.0,-1.3,-0.4,1.08,GOOD
1790984785755,1237,1959.0,-297.267832626994,32000.0,85.3,98.0,-1.3,-0.4,1.08,GOOD
1790984785755,1238,1985.0,-278.1458891395394,32000.0,85.3,98.0,-1.3,-0.4,1.08,GOOD
1790984785755,1239,2015.0,-210.87649377313457,32000.0,85.3,98.0,-1.3,-0.4,1.08,GOOD
1790984785755,1240,2011.0,-137.06245117034237,32000.0,85.3,98.0,-1.3,-0.4,1.08,GOOD
1790984785755,1241,1850.0,-96.04655764138249,32000.0,85.3,98.0,-1.3,-0.4,1.08,GOOD
1790984785755,1242,1838.0,-104.66920065647274,32000.0,85.3,98.0,-1.3,-0.4,1.08,GOOD
1790984785755,1243,1841.0,-150.27539144078807,32000.0,85.3,98.0,-1.3,-0.4,1.08,GOOD
1790984785755,1244,1852.0,-202.76949736028487,32000.0,85.3,98.0,-1.3,-0.4,1.08,GOOD
1790984785755,1245,2084.0,-231.90263429317102,32000.0,85.3,98.0,-1.3,-0.4,1.08,GOOD
1790984785755,1246,2076.0,-210.20204252295935,32000.0,85.3,98.0,-1.3,-0.4,1.08,GOOD
1790984785755,1247,2074.0,-135.93416162874308,32000.0,85.3,98.0,-1.3,-0.4,1.08,GOOD
1790984785755,1248,1837.0,-54.63266720253537,32000.0,85.3,98.0,-1.3,-0.4,1.08,GOOD
1790984785755,1249,1965.0,-24.181937369897526,32000.0,85.3,98.0,-1.3,-0.4,1.08,GOOD
1790984785755,1250,1971.0,-53.892678321485036,32000.0,85.3,98.0,-1.3,-0.4,1.08,GOOD
1790984785834,1251,1938.0,-105.46332879447007,32000.0,85.3,98.0,-1.4,-0.4,1.07,GOOD
1790984785834,1252,1964.0,-141.87242716583938,32000.0,85.3,98.0,-1.4,-0.4,1.07,GOOD
1790984785834,1253,1989.0,-144.49394487970906,32000.0,85.3,98.0,-1.4,-0.4,1.07,GOOD
1790984785834,1254,1889.0,-119.66365414592937,32000.0,85.3,98.0,-1.4,-0.4,1.07,GOOD
1790984785834,1255,1874.0,-102.49379098766627,32000.0,85.3,98.0,-1.4,-0.4,1.07,GOOD
1790984785834,1256,1929.0,-117.62440925847608,32000.0,85.3,98.0,-1.4,-0.4,1.07,GOOD
1790984785834,1257,1935.0,-146.82305764491332,32000.0,85.3,98.0,-1.4,-0.4,1.07,GOOD
1790984785834,1258,1930.0,-157.7701371352744,32000.0,85.3,98.0,-1.4,-0.4,1.07,GOOD
1790984785834,1259,1921.0,-143.7792871302194,32000.0,85.3,98.0,-1.4,-0.4,1.07,GOOD
1790984785834,1260,1845.0,-126.20726469538106,32000.0,85.3,98.0,-1.4,-0.4,1.07,GOOD
1790984785834,1261,1820.0,-131.30858911156747,32000.0,85.3,98.0,-1.4,-0.4,1.07,GOOD
1790984785834,1262,1831.0,-162.51064365258293,32000.0,85.3,98.0,-1.4,-0.4,1.07,GOOD
1790984785834,1263,1856.0,-196.1798717403109,32000.0,85.3,98.0,-1.4,-0.4,1.07,GOOD
1790984785834,1264,1826.0,-210.16158864541185,32000.0,85.3,98.0,-1.4,-0.4,1.07,GOOD
1790984785834,1265,1793.0,-207.8382430024618,32000.0,85.3,98.0,-1.4,-0.4,1.07,GOOD
1790984785834,1266,1775.0,-207.5422654441004,32000.0,85.3,98.0,-1.4,-0.4,1.07,GOOD
1790984785834,1267,1761.0,-218.2387458021014,32000.0,85.3,98.0,-1.4,-0.4,1.07,GOOD
1790984785834,1268,2147.0,-219.09140234923083,32000.0,85.3,98.0,-1.4,-0.4,1.07,GOOD
1790984785834,1269,2175.0,-166.08359966213186,32000.0,85.3,98.0,-1.4,-0.4,1.07,GOOD
1790984785834,1270,2200.0,-50.573710412747154,32000.0,85.3,98.0,-1.4,-0.4,1.07,GOOD
1790984785834,1271,2215.0,80.20973612016994,32000.0,85.3,98.0,-1.4,-0.4,1.07,GOOD
1790984785834,1272,1838.0,163.82045622409512,32000.0,85.3,98.0,-1.4,-0.4,1.07,GOOD
1790984785834,1273,1821.0,149.25995559063347,32000.0,85.3,98.0,-1.4,-0.4,1.07,GOOD
1790984785834,1274,1801.0,36.449107502253085,32000.0,85.3,98.0,-1.4,-0.4,1.07,GOOD
1790984785834,1275,1802.0,-110.80382704294013,32000.0,85.3,98.0,-1.4,-0.4,1.07,GOOD
1790984785944,1276,2067.0,-211.80250103614296,32000.0,85.3,98.0,-1.3,-0.3,1.09,GOOD
1790984785944,1277,2065.0,-210.75180051194533,32000.0,85.3,98.0,-1.3,-0.3,1.09,GOOD
1790984785944,1278,2108.0,-113.95956203320272,32000.0,85.3,98.0,-1.3,-0.3,1.09,GOOD
1790984785944,1279,2067.0,10.92283763119995,32000.0,85.3,98.0,-1.3,-0.3,1.09,GOOD
1790984785944,1280,1960.0,90.55292747518956,32000.0,85.3,98.0,-1.3,-0.3,1.09,GOOD
1790984785944,1281,1974.0,92.75837201631475,32000.0,85.3,98.0,-1.3,-0.3,1.09,GOOD
1790984785944,1282,1971.0,40.360513236072464,32000.0,85.3,98.0,-1.3,-0.3,1.09,GOOD
1790984785944,1283,1976.0,-17.160774029332085,32000.0,85.3,98.0,-1.3,-0.3,1.09,GOOD
1790984785944,1284,1859.0,-53.19856047953504,32000.0,85.3,98.0,-1.3,-0.3,1.09,GOOD
1790984785944,1285,1868.0,-76.51045192663835,32000.0,85.3,98.0,-1.3,-0.3,1.09,GOOD
1790984785944,1286,1853.0,-100.56073096142336,32000.0,85.3,98.0,-1.3,-0.3,1.09,GOOD
1790984785944,1287,1843.0,-124.39469862368087,32000.0,85.3,98.0,-1.3,-0.3,1.09,GOOD
1790984785944,1288,2147.0,-130.87085945424732,32000.0,85.3,98.0,-1.3,-0.3,1.09,GOOD
1790984785944,1289,2151.0,-90.55270283380338,32000.0,85.3,98.0,-1.3,-0.3,1.09,GOOD
1790984785944,1290,2146.0,-1.1998777713902005,32000.0,85.3,98.0,-1.3,-0.3,1.09,GOOD
1790984785944,1291,2145.0,96.25970582150359,32000.0,85.3,98.0,-1.3,-0.3,1.09,GOOD
1790984785944,1292,1847.0,150.50145715075394,32000.0,85.3,98.0,-1.3,-0.3,1.09,GOOD
1790984785944,1293,1864.0,124.27320195350161,32000.0,85.3,98.0,-1.3,-0.3,1.09,GOOD
1790984785944,1294,1855.0,26.19821468337382,32000.0,85.3,98.0,-1.3,-0.3,1.09,GOOD
1790984785944,1295,1854.0,-86.56622083946817,32000.0,85.3,98.0,-1.3,-0.3,1.09,GOOD
1790984785944,1296,2202.0,-147.47541917890476,32000.0,85.3,98.0,-1.3,-0.3,1.09,GOOD
1790984785944,1297,2193.0,-110.10147439977955,32000.0,85.3,98.0,-1.3,-0.3,1.09,GOOD
1790984785944,1298,2154.0,9.373444912274422,32000.0,85.3,98.0,-1.3,-0.3,1.09,GOOD
1790984785944,1299,2118.0,132.5709152369012,32000.0,85.3,98.0,-1.3,-0.3,1.09,GOOD
1790984785944,1300,2072.0,193.90205325376556,32000.0,85.3,98.0,-1.3,-0.3,1.09,GOOD
1790984786031,1301,2041.0,182.42329048698622,32000.0,85.6,98.0,-1.3,-0.3,1.08,GOOD
1790984786031,1302,2068.0,126.81800233736617,32000.0,85.6,98.0,-1.3,-0.3,1.08,GOOD
1790984786031,1303,2094.0,70.24837541955826,32000.0,85.6,98.0,-1.3,-0.3,1.08,GOOD
1790984786031,1304,2107.0,44.945665022788965,32000.0,85.6,98.0,-1.3,-0.3,1.08,GOOD
1790984786031,1305,2097.0,55.02679212463897,32000.0,85.6,98.0,-1.3,-0.3,1.08,GOOD
1790984786031,1306,2073.0,80.05223561910921,32000.0,85.6,98.0,-1.3,-0.3,1.08,GOOD
1790984786031,1307,2073.0,95.30069925393613,32000.0,85.6,98.0,-1.3,-0.3,1.08,GOOD
1790984786031,1308,1780.0,79.95379159820857,32000.0,85.6,98.0,-1.3,-0.3,1.08,GOOD
1790984786031,1309,1764.0,16.13098193506133,32000.0,85.6,98.0,-1.3,-0.3,1.08,GOOD
1790984786031,1310,1729.0,-87.04498905298263,32000.0,85.6,98.0,-1.3,-0.3,1.08,GOOD
1790984786031,1311,1733.0,-189.85826147912067,32000.0,85.6,98.0,-1.3,-0.3,1.08,GOOD
1790984786031,1312,2068.0,-247.1314610496224,32000.0,85.6,98.0,-1.3,-0.3,1.08,GOOD
1790984786031,1313,2104.0,-219.97992176757947,32000.0,85.6,98.0,-1.3,-0.3,1.08,GOOD
1790984786031,1314,2091.0,-110.38829534484528,32000.0,85.6,98.0,-1.3,-0.3,1.08,GOOD
1790984786031,1315,2071.0,23.317806880187113,32000.0,85.6,98.0,-1.3,-0.3,1.08,GOOD
1790984786031,1316,2047.0,116.86893024151443,32000.0,85.6,98.0,-1.3,-0.3,1.08,GOOD
1790984786031,1317,2056.0,142.47442094172362,32000.0,85.6,98.0,-1.3,-0.3,1.08,GOOD
1790984786031,1318,2067.0,113.63575169532578,32000.0,85.6,98.0,-1.3,-0.3,1.08,GOOD
1790984786031,1319,2097.0,71.00324587967842,32000.0,85.6,98.0,-1.3,-0.3,1.08,GOOD
1790984786031,1320,2165.0,55.88976935579022,32000.0,85.6,98.0,-1.3,-0.3,1.08,GOOD
1790984786031,1321,2125.0,81.30724986463385,32000.0,85.6,98.0,-1.3,-0.3,1.08,GOOD
1790984786031,1322,2091.0,120.49511480919199,32000.0,85.6,98.0,-1.3,-0.3,1.08,GOOD
1790984786031,1323,2091.0,136.41043529435365,32000.0,85.6,98.0,-1.3,-0.3,1.08,GOOD
1790984786031,1324,2821.0,151.0838878927671,32000.0,85.6,98.0,-1.3,-0.3,1.08,GOOD
1790984786031,1325,2843.0,251.03451596890017,32000.0,85.6,98.0,-1.3,-0.3,1.08,GOOD
1790984786142,1326,2871.0,460.5945371286904,32000.0,85.6,98.0,-1.3,-0.3,1.07,GOOD
1790984786142,1327,2908.0,691.497188215523,32000.0,85.6,98.0,-1.3,-0.3,1.07,GOOD
1790984786142,1328,2463.0,835.9513529656012,32000.0,85.6,98.0,-1.3,-0.3,1.07,GOOD
1790984786142,1329,2403.0,825.4140239005985,32000.0,85.6,98.0,-1.3,-0.3,1.07,GOOD
1790984786142,1330,2335.0,666.7250975091329,32000.0,85.6,98.0,-1.3,-0.3,1.07,GOOD
1790984786142,1331,2284.0,447.03164482729386,32000.0,85.6,98.0,-1.3,-0.3,1.07,GOOD
1790984786142,1332,1839.0,244.77140514290124,32000.0,85.6,98.0,-1.3,-0.3,1.07,GOOD
1790984786142,1333,1890.0,73.79109278491138,32000.0,85.6,98.0,-1.3,-0.3,1.07,GOOD
1790984786142,1334,1877.0,-66.06711176943543,32000.0,85.6,98.0,-1.3,-0.3,1.07,GOOD
1790984786142,1335,1854.0,-162.1710776100373,32000.0,85.6,98.0,-1.3,-0.3,1.07,GOOD
1790984786142,1336,1910.0,-216.4897274242002,32000.0,85.6,98.0,-1.3,-0.3,1.07,GOOD
1790984786142,1337,1945.0,-233.64711653015962,32000.0,85.6,98.0,-1.3,-0.3,1.07,GOOD
1790984786142,1338,1990.0,-207.15737634032985,32000.0,85.6,98.0,-1.3,-0.3,1.07,GOOD
1790984786142,1339,1980.0,-145.7335866482158,32000.0,85.6,98.0,-1.3,-0.3,1.07,GOOD
1790984786142,1340,2119.0,-79.97954915306286,32000.0,85.6,98.0,-1.3,-0.3,1.07,GOOD
1790984786142,1341,2103.0,-32.454790259256455,32000.0,85.6,98.0,-1.3,-0.3,1.07,GOOD
1790984786142,1342,2122.0,-2.104247021304406,32000.0,85.6,98.0,-1.3,-0.3,1.07,GOOD
1790984786142,1343,2010.0,19.657183409356854,32000.0,85.6,98.0,-1.3,-0.3,1.07,GOOD
1790984786142,1344,2006.0,29.872859214491193,32000.0,85.6,98.0,-1.3,-0.3,1.07,GOOD
1790984786142,1345,1978.0,16.01658772620174,32000.0,85.6,98.0,-1.3,-0.3,1.07,GOOD
1790984786142,1346,1972.0,-25.281416579946665,32000.0,85.6,98.0,-1.3,-0.3,1.07,GOOD
1790984786142,1347,2101.0,-71.50310029773657,32000.0,85.6,98.0,-1.3,-0.3,1.07,GOOD
1790984786142,1348,2114.0,-81.58475861915012,32000.0,85.6,98.0,-1.3,-0.3,1.07,GOOD
1790984786142,1349,2082.0,-40.758092800937796,32000.0,85.6,98.0,-1.3,-0.3,1.07,GOOD
1790984786142,1350,2021.0,14.028468537766226,32000.0,85.6,98.0,-1.3,-0.3,1.07,GOOD
1790984786242,1351,2022.0,34.579695003848116,32000.0,85.6,98.0,-1.3,-0.3,1.08,GOOD
1790984786242,1352,2032.0,12.241234646668266,32000.0,85.6,98.0,-1.3,-0.3,1.08,GOOD
1790984786242,1353,2051.0,-22.256306678900565,32000.0,85.6,98.0,-1.3,-0.3,1.08,GOOD
1790984786242,1354,2040.0,-38.26400358053781,32000.0,85.6,98.0,-1.3,-0.3,1.08,GOOD
1790984786242,1355,2071.0,-31.768261944357594,32000.0,85.6,98.0,-1.3,-0.3,1.08,GOOD
1790984786242,1356,2056.0,-16.972644272377305,32000.0,85.6,98.0,-1.3,-0.3,1.08,GOOD
1790984786242,1357,2081.0,-5.829939776951625,32000.0,85.6,98.0,-1.3,-0.3,1.08,GOOD
1790984786242,1358,2107.0,2.62342848389406,32000.0,85.6,98.0,-1.3,-0.3,1.08,GOOD
1790984786242,1359,2135.0,16.8248817608251,32000.0,85.6,98.0,-1.3,-0.3,1.08,GOOD
1790984786242,1360,2118.0,37.68859998302599,32000.0,85.6,98.0,-1.3,-0.3,1.08,GOOD
1790984786242,1361,2120.0,55.03169782223905,32000.0,85.6,98.0,-1.3,-0.3,1.08,GOOD
1790984786242,1362,2154.0,62.31232159800675,32000.0,85.6,98.0,-1.3,-0.3,1.08,GOOD
1790984786242,1363,2226.0,68.48535640318096,32000.0,85.6,98.0,-1.3,-0.3,1.08,GOOD
1790984786242,1364,2209.0,86.41501378677052,32000.0,85.6,98.0,-1.3,-0.3,1.08,GOOD
1790984786242,1365,2165.0,111.47778226906735,32000.0,85.6,98.0,-1.3,-0.3,1.08,GOOD
1790984786242,1366,2155.0,125.13668450115617,32000.0,85.6,98.0,-1.3,-0.3,1.08,GOOD
1790984786242,1367,2212.0,121.0849168789974,32000.0,85.6,98.0,-1.3,-0.3,1.08,GOOD
1790984786242,1368,2225.0,112.73739419875444,32000.0,85.6,98.0,-1.3,-0.3,1.08,GOOD
1790984786242,1369,2213.0,112.54480059372428,32000.0,85.6,98.0,-1.3,-0.3,1.08,GOOD
1790984786242,1370,2194.0,118.49701921758255,32000.0,85.6,98.0,-1.3,-0.3,1.08,GOOD
1790984786242,1371,2331.0,128.40033679582672,32000.0,85.6,98.0,-1.3,-0.3,1.08,GOOD
1790984786242,1372,2337.0,150.99031707370506,32000.0,85.6,98.0,-1.3,-0.3,1.08,GOOD
1790984786242,1373,2315.0,186.0446612717937,32000.0,85.6,98.0,-1.3,-0.3,1.08,GOOD
1790984786242,1374,2311.0,215.33877912174327,32000.0,85.6,98.0,-1.3,-0.3,1.08,GOOD
1790984786242,1375,2459.0,232.607432820196,32000.0,85.6,98.0,-1.3,-0.3,1.08,GOOD
1790984786355,1376,2472.0,255.7073027033623,32000.0,85.6,98.0,-1.4,-0.3,1.07,GOOD
1790984786355,1377,2492.0,294.2900104054793,32000.0,85.6,98.0,-1.4,-0.3,1.07,GOOD
1790984786355,1378,2525.0,335.5719835666421,32000.0,85.6,98.0,-1.4,-0.3,1.07,GOOD
1790984786355,1379,2316.0,359.05614055950275,32000.0,85.6,98.0,-1.4,-0.3,1.07,GOOD
1790984786355,1380,2282.0,343.0219927199636,32000.0,85.6,98.0,-1.4,-0.3,1.07,GOOD
1790984786355,1381,2248.0,282.3081420076335,32000.0,85.6,98.0,-1.4,-0.3,1.07,GOOD
1790984786355,1382,2259.0,200.31338486465643,32000.0,85.6,98.0,-1.4,-0.3,1.07,GOOD
1790984786355,1383,1980.0,117.21753749354806,32000.0,85.6,98.0,-1.4,-0.3,1.07,GOOD
1790984786355,1384,2064.0,32.13625116421828,32000.0,85.6,98.0,-1.4,-0.3,1.07,GOOD
1790984786355,1385,2032.0,-45.25153928619075,32000.0,85.6,98.0,-1.4,-0.3,1.07,GOOD
1790984786355,1386,1993.0,-95.5053564079352,32000.0,85.6,98.0,-1.4,-0.3,1.07,GOOD
1790984786355,1387,2026.0,-121.78653251879078,32000.0,85.6,98.0,-1.4,-0.3,1.07,GOOD
1790984786355,1388,2059.0,-134.74127795089865,32000.0,85.6,98.0,-1.4,-0.3,1.07,GOOD
1790984786355,1389,2061.0,-131.37616861547727,32000.0,85.6,98.0,-1.4,-0.3,1.07,GOOD
1790984786355,1390,2024.0,-111.32773149445661,32000.0,85.6,98.0,-1.4,-0.3,1.07,GOOD
1790984786355,1391,1923.0,-93.63341888404635,32000.0,85.6,98.0,-1.4,-0.3,1.07,GOOD
1790984786355,1392,1934.0,-103.92643617108592,32000.0,85.6,98.0,-1.4,-0.3,1.07,GOOD
1790984786355,1393,1962.0,-142.7142726299551,32000.0,85.6,98.0,-1.4,-0.3,1.07,GOOD
1790984786355,1394,1947.0,-182.51781373450729,32000.0,85.6,98.0,-1.4,-0.3,1.07,GOOD
1790984786355,1395,2078.0,-194.84905328877494,32000.0,85.6,98.0,-1.4,-0.3,1.07,GOOD
1790984786355,1396,2053.0,-168.4684564279611,32000.0,85.6,98.0,-1.4,-0.3,1.07,GOOD
1790984786355,1397,2057.0,-118.78677637319453,32000.0,85.6,98.0,-1.4,-0.3,1.07,GOOD
1790984786355,1398,2077.0,-75.44194952122021,32000.0,85.6,98.0,-1.4,-0.3,1.07,GOOD
1790984786355,1399,1835.0,-61.66701474332815,32000.0,85.6,98.0,-1.4,-0.3,1.07,GOOD
1790984786355,1400,1813.0,-94.19011564271955,32000.0,85.6,98.0,-1.4,-0.3,1.07,GOOD
1790984786569,1401,1789.0,-168.7798705449345,32000.0,85.6,98.0,-1.4,-0.3,1.09,GOOD
1790984786569,1402,1816.0,-252.3129100269153,32000.0,85.6,98.0,-1.4,-0.3,1.09,GOOD
1790984786569,1403,1996.0,-304.2809245735446,32000.0,85.6,98.0,-1.4,-0.3,1.09,GOOD
1790984786569,1404,2005.0,-295.0888764497097,32000.0,85.6,98.0,-1.4,-0.3,1.09,GOOD
1790984786569,1405,1988.0,-228.65855540575956,32000.0,85.6,98.0,-1.4,-0.3,1.09,GOOD
1790984786569,1406,1956.0,-146.92022155572425,32000.0,85.6,98.0,-1.4,-0.3,1.09,GOOD
1790984786569,1407,1832.0,-99.42246643014946,32000.0,85.6,98.0,-1.4,-0.3,1.09,GOOD
1790984786569,1408,1860.0,-112.32633001912423,32000.0,85.6,98.0,-1.4,-0.3,1.09,GOOD
1790984786569,1409,1859.0,-169.47477754234194,32000.0,85.6,98.0,-1.4,-0.3,1.09,GOOD
1790984786569,1410,1839.0,-227.51837824777067,32000.0,85.6,98.0,-1.4,-0.3,1.09,GOOD
1790984786569,1411,1875.0,-255.26436178502476,32000.0,85.6,98.0,-1.4,-0.3,1.09,GOOD
1790984786569,1412,1911.0,-247.52221915929343,32000.0,85.6,98.0,-1.4,-0.3,1.09,GOOD
1790984786569,1413,1926.0,-216.94644920543638,32000.0,85.6,98.0,-1.4,-0.3,1.09,GOOD
1790984786569,1414,1939.0,-182.47309096508815,32000.0,85.6,98.0,-1.4,-0.3,1.09,GOOD
1790984786569,1415,1953.0,-154.950515003556,32000.0,85.6,98.0,-1.4,-0.3,1.09,GOOD
1790984786569,1416,1919.0,-134.75152839060914,32000.0,85.6,98.0,-1.4,-0.3,1.09,GOOD
1790984786569,1417,1929.0,-122.39103903159169,32000.0,85.6,98.0,-1.4,-0.3,1.09,GOOD
1790984786569,1418,1936.0,-120.18359480902699,32000.0,85.6,98.0,-1.4,-0.3,1.09,GOOD
1790984786569,1419,2017.0,-122.66232880904528,32000.0,85.6,98.0,-1.4,-0.3,1.09,GOOD
1790984786569,1420,2011.0,-115.8070216703914,32000.0,85.6,98.0,-1.4,-0.3,1.09,GOOD
1790984786569,1421,2001.0,-92.94518525100662,32000.0,85.6,98.0,-1.4,-0.3,1.09,GOOD
1790984786569,1422,2035.0,-62.51917710825151,32000.0,85.6,98.0,-1.4,-0.3,1.09,GOOD
1790984786569,1423,1983.0,-38.464642158838856,32000.0,85.6,98.0,-1.4,-0.3,1.09,GOOD
1790984786569,1424,1973.0,-33.05819466195068,32000.0,85.6,98.0,-1.4,-0.3,1.09,GOOD
1790984786569,1425,1961.0,-48.460931293189454,32000.0,85.6,98.0,-1.4,-0.3,1.09,GOOD
1790984786571,1426,1942.0,-72.39554867929228,32000.0,85.6,98.0,-1.4,-0.3,1.09,GOOD
1790984786571,1427,1931.0,-91.71958844415116,32000.0,85.6,98.0,-1.4,-0.3,1.09,GOOD
1790984786571,1428,1935.0,-103.47280115683135,32000.0,85.6,98.0,-1.4,-0.3,1.09,GOOD
1790984786571,1429,1939.0,-110.63451267264125,32000.0,85.6,98.0,-1.4,-0.3,1.09,GOOD
1790984786571,1430,1919.0,-115.3880572077688,32000.0,85.6,98.0,-1.4,-0.3,1.09,GOOD
1790984786571,1431,1927.0,-117.51903377854774,32000.0,85.6,98.0,-1.4,-0.3,1.09,GOOD
1790984786571,1432,1913.0,-116.2195255598257,32000.0,85.6,98.0,-1.4,-0.3,1.09,GOOD
1790984786571,1433,1924.0,-113.35969530369557,32000.0,85.6,98.0,-1.4,-0.3,1.09,GOOD
1790984786571,1434,1921.0,-112.58433394446885,32000.0,85.6,98.0,-1.4,-0.3,1.09,GOOD
1790984786571,1435,1969.0,-112.54411609157123,32000.0,85.6,98.0,-1.4,-0.3,1.09,GOOD
1790984786571,1436,1965.0,-105.63630303382327,32000.0,85.6,98.0,-1.4,-0.3,1.09,GOOD
1790984786571,1437,1984.0,-87.89474852742563,32000.0,85.6,98.0,-1.4,-0.3,1.09,GOOD
1790984786571,1438,2007.0,-64.206624146149,32000.0,85.6,98.0,-1.4,-0.3,1.09,GOOD
1790984786571,1439,1975.0,-43.51500248438816,32000.0,85.6,98.0,-1.4,-0.3,1.09,GOOD
1790984786571,1440,1963.0,-34.39153998075811,32000.0,85.6,98.0,-1.4,-0.3,1.09,GOOD
1790984786571,1441,1950.0,-39.0250617246091,32000.0,85.6,98.0,-1.4,-0.3,1.09,GOOD
1790984786571,1442,1970.0,-50.1106920772175,32000.0,85.6,98.0,-1.4,-0.3,1.09,GOOD
1790984786571,1443,2046.0,-55.17276927383237,32000.0,85.6,98.0,-1.4,-0.3,1.09,GOOD
1790984786571,1444,2043.0,-44.45212940017803,32000.0,85.6,98.0,-1.4,-0.3,1.09,GOOD
