timestamp_ms,ecg_filtered,ppg_dc_ir,ecg_bpm,spo2_pct
492094,2001.0,430.0,186.3,0.0
491097,2178.0,425.0,186.3,0.0
491097,2167.0,425.0,186.3,0.0
491114,1932.0,425.0,186.3,0.0
491114,1968.0,425.0,186.3,0.0
491115,1974.0,425.0,186.3,0.0
491115,13.0,0.0,2.3,-0.8
492094,2001.0,430.0,186.3,0.0
492094,2058.0,430.0,186.3,0.0
492095,2067.0,430.0,186.3,0.0
492107,1991.0,431.0,186.3,0.0
492108,1975.0,431.0,186.3,0.0
492108,1969.0,431.0,186.3,0.0
492125,2061.0,431.0,186.3,0.0
492125,2050.0,431.0,186.3,0.0
492125,2046.0,431.0,186.3,0.0
492125,2044.0,431.0,186.3,0.0
492138,2245.0,431.0,186.3,0.0
492138,2243.0,431.0,186.3,0.0
492139,2213.0,431.0,186.3,0.0
492155,2135.0,432.0,186.3,0.0
492156,2171.0,432.0,186.3,0.0
492156,2154.0,432.0,186.3,0.0
492156,2142.0,432.0,186.3,0.0
492170,1917.0,432.0,186.3,0.0
492170,1910.0,432.0,186.3,0.0
492170,1904.0,432.0,186.3,0.0
492183,2129.0,432.0,186.3,0.0
492183,2120.0,432.0,186.3,0.0
492184,2128.0,432.0,186.3,0.0
492184,2126.0,432.0,186.3,0.0
492200,2248.0,433.0,186.3,0.0
492201,2220.0,433.0,186.3,0.0
492201,2204.0,433.0,186.3,0.0
492201,2218.0,433.0,186.3,0.0
492214,2033.0,433.0,186.3,0.0
492214,2079.0,433.0,186.3,0.0
492214,2068.0,433.0,186.3,0.0
492227,1977.0,433.0,186.3,0.0
492227,1981.0,433.0,186.3,0.0
492228,1985.0,433.0,186.3,0.0
492244,2094.0,434.0,186.3,0.0
492245,2064.0,434.0,186.3,0.0
492245,2057.0,434.0,186.3,0.0
492245,2070.0,434.0,186.3,0.0
492258,2108.0,434.0,186.3,0.0
492258,2099.0,434.0,186.3,0.0
492258,2077.0,434.0,186.3,0.0
492275,2056.0,435.0,186.3,0.0
492276,2083.0,435.0,186.3,0.0
492276,2097.0,435.0,186.3,0.0
492276,2088.0,435.0,186.3,0.0
492289,1940.0,435.0,186.3,0.0
492290,1936.0,435.0,186.3,0.0
492290,1965.0,435.0,186.3,0.0
492303,2113.0,436.0,186.3,0.0
492303,2069.0,436.0,186.3,0.0
492303,2073.0,436.0,186.3,0.0
492303,2075.0,436.0,186.3,0.0
492320,1997.0,436.0,186.3,0.0
492320,1989.0,436.0,186.3,0.0
492321,1987.0,436.0,186.3,0.0
492321,1977.0,436.0,186.3,0.0
492333,2078.0,436.0,186.3,0.0
492334,2155.0,436.0,186.3,0.0
492334,2175.0,436.0,186.3,0.0
492347,1950.0,436.0,186.3,0.0
492347,1926.0,436.0,186.3,0.0
492348,1919.0,436.0,186.3,0.0
492348,1924.0,436.0,186.3,0.0
492365,2029.0,437.0,186.3,0.0
492365,2026.0,437.0,186.3,0.0
492365,2021.0,437.0,186.3,0.0
492365,2020.0,437.0,186.3,0.0
492379,2214.0,437.0,186.3,0.0
492379,2202.0,437.0,186.3,0.0
492380,2207.0,437.0,186.3,0.0
492395,2006.0,438.0,186.3,0.0
492396,2032.0,438.0,186.3,0.0
492396,2012.0,438.0,186.3,0.0
492396,2015.0,438.0,186.3,0.0
492410,1955.0,438.0,186.3,0.0
492410,1963.0,438.0,186.3,0.0
492410,1962.0,438.0,186.3,0.0
492423,2037.0,438.0,186.3,0.0
492423,2032.0,438.0,186.3,0.0
492424,2019.0,438.0,186.3,0.0
492424,2040.0,438.0,186.3,0.0
492441,2157.0,438.0,186.3,0.0
492441,2137.0,438.0,186.3,0.0
492441,2127.0,438.0,186.3,0.0
492441,2139.0,438.0,186.3,0.0
492454,1996.0,438.0,186.3,0.0
492454,2024.0,438.0,186.3,0.0
492455,2013.0,438.0,186.3,0.0
492467,1972.0,438.0,186.3,0.0
492468,1982.0,438.0,186.3,0.0
492468,1991.0,438.0,186.3,0.0
492484,2091.0,438.0,186.3,0.0
492485,2050.0,438.0,186.3,0.0
492485,2043.0,438.0,186.3,0.0
492485,2047.0,438.0,186.3,0.0
492499,2116.0,438.0,186.3,0.0
492499,2107.0,438.0,186.3,0.0
492499,2080.0,438.0,186.3,0.0
492515,1973.0,438.0,186.3,0.0
492516,2001.0,438.0,186.3,0.0
492516,2009.0,438.0,186.3,0.0
492516,2007.0,438.0,186.3,0.0
492529,1954.0,438.0,186.3,0.0
492530,1958.0,438.0,186.3,0.0
492530,1964.0,438.0,186.3,0.0
492543,2111.0,438.0,186.3,0.0
492543,2083.0,438.0,186.3,0.0
492543,2076.0,438.0,186.3,0.0
492543,2091.0,438.0,186.3,0.0
492560,2047.0,438.0,186.3,0.0
492560,2045.0,438.0,186.3,0.0
492561,2026.0,438.0,186.3,0.0
492561,2020.0,438.0,186.3,0.0
492573,2009.0,438.0,186.3,0.0
492574,2066.0,438.0,186.3,0.0
492574,2066.0,438.0,186.3,0.0
492587,1989.0,438.0,186.3,0.0
492587,1970.0,438.0,186.3,0.0
492587,1967.0,438.0,186.3,0.0
492604,2065.0,438.0,186.3,0.0
492604,2072.0,438.0,186.3,0.0
492604,2062.0,438.0,186.3,0.0
492605,2052.0,438.0,186.3,0.0
492618,2196.0,438.0,186.3,0.0
492618,2205.0,438.0,186.3,0.0
492619,2203.0,438.0,186.3,0.0
492635,2140.0,438.0,186.3,0.0
492635,2197.0,438.0,186.3,0.0
492635,2211.0,438.0,186.3,0.0
492635,2214.0,438.0,186.3,0.0
492649,1920.0,438.0,186.3,0.0
492649,1898.0,438.0,186.3,0.0
492650,1884.0,438.0,186.3,0.0
492662,2075.0,438.0,186.3,0.0
492663,2076.0,438.0,186.3,0.0
492663,2092.0,438.0,186.3,0.0
492663,2099.0,438.0,186.3,0.0
492680,2110.0,438.0,186.3,0.0
492680,2073.0,438.0,186.3,0.0
492680,2082.0,438.0,186.3,0.0
492680,2082.0,438.0,186.3,0.0
492693,1937.0,438.0,186.3,0.0
492693,1936.0,438.0,186.3,0.0
492694,1902.0,438.0,186.3,0.0
492706,2002.0,438.0,186.3,0.0
492706,2004.0,438.0,186.3,0.0
492707,2016.0,438.0,186.3,0.0
492724,2007.0,438.0,186.3,0.0
492724,1981.0,438.0,186.3,0.0
492725,1971.0,438.0,186.3,0.0
492725,1991.0,438.0,186.3,0.0
492738,4095.0,437.0,82.6,0.0
492739,4095.0,437.0,82.6,0.0
492739,4095.0,437.0,82.6,0.0
492739,4095.0,437.0,82.6,0.0
492756,1265.0,437.0,82.6,0.0
492756,1288.0,437.0,82.6,0.0
492757,1200.0,437.0,82.6,0.0
492757,1176.0,437.0,82.6,0.0
492770,2300.0,437.0,82.6,0.0
492771,2338.0,437.0,82.6,0.0
492771,2337.0,437.0,82.6,0.0
492783,1913.0,437.0,82.6,0.0
492784,1840.0,437.0,82.6,0.0
492784,1852.0,437.0,82.6,0.0
492784,1939.0,437.0,82.6,0.0
492801,2270.0,437.0,82.6,0.0
492802,2181.0,437.0,82.6,0.0
492802,2147.0,437.0,82.6,0.0
492802,2184.0,437.0,82.6,0.0
492814,1999.0,437.0,82.6,0.0
492815,2036.0,437.0,82.6,0.0
492815,1983.0,437.0,82.6,0.0
492829,1905.0,438.0,82.6,0.0
492829,1939.0,438.0,82.6,0.0
492830,1985.0,438.0,82.6,0.0
492830,1970.0,438.0,82.6,0.0
492847,1960.0,438.0,82.6,0.0
492848,1920.0,438.0,82.6,0.0
492848,1941.0,438.0,82.6,0.0
492848,1998.0,438.0,82.6,0.0
492861,2189.0,437.0,82.6,0.0
492861,2126.0,437.0,82.6,0.0
492861,2093.0,437.0,82.6,0.0
492879,2087.0,437.0,82.6,0.0
492879,2147.0,437.0,82.6,0.0
492879,2133.0,437.0,82.6,0.0
492879,2066.0,437.0,82.6,0.0
492892,1872.0,437.0,82.6,0.0
492893,1928.0,437.0,82.6,0.0
492893,1978.0,437.0,82.6,0.0
492905,2057.0,437.0,82.6,0.0
492906,1978.0,437.0,82.6,0.0
492906,1950.0,437.0,82.6,0.0
492906,2000.0,437.0,82.6,0.0
492923,2098.0,437.0,82.6,0.0
492923,2060.0,437.0,82.6,0.0
492924,2018.0,437.0,82.6,0.0
492924,2018.0,437.0,82.6,0.0
492937,2091.0,437.0,82.6,0.0
492938,2119.0,437.0,82.6,0.0
492938,2101.0,437.0,82.6,0.0
492954,1975.0,437.0,82.6,0.0
492954,2016.0,437.0,82.6,0.0
492954,2050.0,437.0,82.6,0.0
492955,2079.0,437.0,82.6,0.0
492968,1998.0,437.0,82.6,0.0
492969,1916.0,437.0,82.6,0.0
492969,1908.0,437.0,82.6,0.0
492970,1923.0,437.0,82.6,0.0
492982,2041.0,437.0,82.6,0.0
492983,2045.0,437.0,82.6,0.0
492983,2030.0,437.0,82.6,0.0
493000,2327.0,437.0,82.6,0.0
493000,2333.0,437.0,82.6,0.0
493001,2346.0,437.0,82.6,0.0
493001,2341.0,437.0,82.6,0.0
493013,1939.0,437.0,82.6,0.0
493014,1903.0,437.0,82.6,0.0
493014,1911.0,437.0,82.6,0.0
493027,2007.0,437.0,82.6,0.0
493028,1999.0,437.0,82.6,0.0
493028,1992.0,437.0,82.6,0.0
493028,1985.0,437.0,82.6,0.0
493044,2050.0,437.0,82.6,0.0
493045,2045.0,437.0,82.6,0.0
493045,1995.0,437.0,82.6,0.0
493045,2000.0,437.0,82.6,0.0
493059,2158.0,437.0,82.6,0.0
493059,2167.0,437.0,82.6,0.0
493059,2162.0,437.0,82.6,0.0
493060,2179.0,437.0,82.6,0.0
493075,2063.0,437.0,82.6,0.0
493076,2087.0,437.0,82.6,0.0
493076,2096.0,437.0,82.6,0.0
493076,2100.0,437.0,82.6,0.0
493090,1948.0,437.0,82.6,0.0
493090,1942.0,437.0,82.6,0.0
493090,1918.0,437.0,82.6,0.0
493103,2062.0,436.0,82.6,0.0
493103,2062.0,436.0,82.6,0.0
493103,2072.0,436.0,82.6,0.0
493104,2092.0,436.0,82.6,0.0
493121,2104.0,436.0,82.6,0.0
493122,2072.0,436.0,82.6,0.0
493122,2094.0,436.0,82.6,0.0
493122,2111.0,436.0,82.6,0.0
493135,2200.0,436.0,82.6,0.0
493135,2229.0,436.0,82.6,0.0
493135,2232.0,436.0,82.6,0.0
493149,1889.0,435.0,82.6,0.0
493149,1889.0,435.0,82.6,0.0
493150,1882.0,435.0,82.6,0.0
493150,1845.0,435.0,82.6,0.0
493166,1984.0,435.0,82.6,0.0
493167,2014.0,435.0,82.6,0.0
493167,2039.0,435.0,82.6,0.0
493167,2029.0,435.0,82.6,0.0
493180,2469.0,435.0,82.6,0.0
493180,2413.0,435.0,82.6,0.0
493181,2449.0,435.0,82.6,0.0
493193,1925.0,435.0,82.6,0.0
493193,1972.0,435.0,82.6,0.0
493194,1954.0,435.0,82.6,0.0
493194,1956.0,435.0,82.6,0.0
493211,1816.0,436.0,82.6,0.0
493212,1881.0,436.0,82.6,0.0
493212,1871.0,436.0,82.6,0.0
493212,1807.0,436.0,82.6,0.0
493226,1969.0,436.0,82.6,0.0
493226,2007.0,436.0,82.6,0.0
493227,2062.0,436.0,82.6,0.0
493242,2086.0,435.0,82.6,0.0
493243,2024.0,435.0,82.6,0.0
493243,1983.0,435.0,82.6,0.0
493244,2011.0,435.0,82.6,0.0
493257,2327.0,435.0,82.6,0.0
493258,2334.0,435.0,82.6,0.0
493258,2294.0,435.0,82.6,0.0
493258,2269.0,435.0,82.6,0.0
493270,1863.0,435.0,82.6,0.0
493271,1903.0,435.0,82.6,0.0
493271,1876.0,435.0,82.6,0.0
493288,1932.0,435.0,82.6,0.0
493288,1890.0,435.0,82.6,0.0
493289,1936.0,435.0,82.6,0.0
493289,1973.0,435.0,82.6,0.0
493301,2114.0,435.0,82.6,0.0
493302,2055.0,435.0,82.6,0.0
493302,2030.0,435.0,82.6,0.0
493319,2201.0,435.0,82.6,0.0
493319,2234.0,435.0,82.6,0.0
493319,2224.0,435.0,82.6,0.0
493319,2171.0,435.0,82.6,0.0
493332,1850.0,435.0,82.6,0.0
493333,1808.0,435.0,82.6,0.0
493333,1955.0,435.0,82.6,0.0
493346,1980.0,434.0,82.6,0.0
493347,1851.0,434.0,82.6,0.0
493347,1921.0,434.0,82.6,0.0
493347,1957.0,434.0,82.6,0.0
493365,2287.0,434.0,82.6,0.0
493366,2099.0,434.0,82.6,0.0
493366,2007.0,434.0,82.6,0.0
493366,1982.0,434.0,82.6,0.0
493379,1819.0,434.0,82.6,0.0
493379,1897.0,434.0,82.6,0.0
493379,1892.0,434.0,82.6,0.0
493392,2091.0,434.0,82.6,0.0
493392,2089.0,434.0,82.6,0.0
493393,2122.0,434.0,82.6,0.0
493393,2132.0,434.0,82.6,0.0
493409,1898.0,434.0,82.6,0.0
493410,1887.0,434.0,82.6,0.0
493410,1885.0,434.0,82.6,0.0
493410,1903.0,434.0,82.6,0.0
493423,2123.0,433.0,82.6,0.0
493423,2085.0,433.0,82.6,0.0
493423,2069.0,433.0,82.6,0.0
493437,2130.0,432.0,82.6,0.0
493437,2154.0,432.0,82.6,0.0
493438,2164.0,432.0,82.6,0.0
493438,2145.0,432.0,82.6,0.0
493453,2029.0,432.0,82.6,0.0
493454,2111.0,432.0,82.6,0.0
493454,2159.0,432.0,82.6,0.0
493454,2165.0,432.0,82.6,0.0
493468,1926.0,432.0,82.6,0.0
493468,1908.0,432.0,82.6,0.0
493468,1893.0,432.0,82.6,0.0
493486,2057.0,432.0,82.6,0.0
493486,2037.0,432.0,82.6,0.0
493486,2029.0,432.0,82.6,0.0
493486,2023.0,432.0,82.6,0.0
493499,2275.0,432.0,82.6,0.0
493500,2238.0,432.0,82.6,0.0
493500,2245.0,432.0,82.6,0.0
493512,1896.0,431.0,82.6,0.0
493513,1955.0,431.0,82.6,0.0
493513,1953.0,431.0,82.6,0.0
493513,1970.0,431.0,82.6,0.0
493530,1882.0,432.0,82.6,0.0
493530,1888.0,432.0,82.6,0.0
493531,1883.0,432.0,82.6,0.0
493531,1857.0,432.0,82.6,0.0
493543,2016.0,432.0,82.6,0.0
493544,2020.0,432.0,82.6,0.0
493544,2052.0,432.0,82.6,0.0
493560,2117.0,431.0,82.6,0.0
493561,2095.0,431.0,82.6,0.0
493561,2060.0,431.0,82.6,0.0
493561,2076.0,431.0,82.6,0.0
493575,2076.0,431.0,82.6,0.0
493575,2095.0,431.0,82.6,0.0
493576,2083.0,431.0,82.6,0.0
493588,1940.0,431.0,82.6,0.0
493589,1952.0,431.0,82.6,0.0
493589,1959.0,431.0,82.6,0.0
493589,1957.0,431.0,82.6,0.0
493607,1968.0,430.0,82.6,0.0
493607,1958.0,430.0,82.6,0.0
493607,1973.0,430.0,82.6,0.0
493607,1981.0,430.0,82.6,0.0
493620,2161.0,430.0,82.6,0.0
493620,2147.0,430.0,82.6,0.0
493621,2141.0,430.0,82.6,0.0
493633,1896.0,429.0,82.6,0.0
493634,1922.0,429.0,82.6,0.0
493634,1879.0,429.0,82.6,0.0
493634,1867.0,429.0,82.6,0.0
493651,1966.0,429.0,82.6,0.0
493652,2011.0,429.0,82.6,0.0
493652,2019.0,429.0,82.6,0.0
493653,1990.0,429.0,82.6,0.0
493667,1991.0,428.0,82.6,0.0
493667,1866.0,428.0,82.6,0.0
493667,1861.0,428.0,82.6,0.0
493667,1830.0,428.0,82.6,0.0
493683,2262.0,428.0,82.6,0.0
493684,2231.0,428.0,82.6,0.0
493684,2265.0,428.0,82.6,0.0
493684,2305.0,428.0,82.6,0.0
493697,2033.0,427.0,82.6,0.0
493698,2004.0,427.0,82.6,0.0
493698,1964.0,427.0,82.6,0.0
493711,1917.0,427.0,82.6,0.0
493711,1952.0,427.0,82.6,0.0
493711,1979.0,427.0,82.6,0.0
493711,1952.0,427.0,82.6,0.0
493729,1909.0,427.0,82.6,0.0
493730,1903.0,427.0,82.6,0.0
493730,1944.0,427.0,82.6,0.0
493730,1841.0,427.0,82.6,0.0
493743,2013.0,427.0,82.6,0.0
493743,1975.0,427.0,82.6,0.0
493743,1983.0,427.0,82.6,0.0
493757,2128.0,426.0,82.6,0.0
493757,2140.0,426.0,82.6,0.0
493757,2119.0,426.0,82.6,0.0
493758,2112.0,426.0,82.6,0.0
493774,2088.0,426.0,82.6,0.0
493775,2159.0,426.0,82.6,0.0
493775,2182.0,426.0,82.6,0.0
493775,2179.0,426.0,82.6,0.0
493788,1918.0,426.0,82.6,0.0
493788,1920.0,426.0,82.6,0.0
493788,1935.0,426.0,82.6,0.0
493805,2040.0,426.0,82.6,0.0
493806,2012.0,426.0,82.6,0.0
493806,2000.0,426.0,82.6,0.0
493806,2005.0,426.0,82.6,0.0
493819,2294.0,426.0,82.6,0.0
493819,2286.0,426.0,82.6,0.0
493819,2274.0,426.0,82.6,0.0
493832,1835.0,425.0,82.6,0.0
493832,1840.0,425.0,82.6,0.0
493833,1843.0,425.0,82.6,0.0
493833,1820.0,425.0,82.6,0.0
493850,1987.0,425.0,82.6,0.0
493851,2002.0,425.0,82.6,0.0
493851,2010.0,425.0,82.6,0.0
493851,1998.0,425.0,82.6,0.0
493865,2013.0,425.0,82.6,0.0
493865,1986.0,425.0,82.6,0.0
493865,2002.0,425.0,82.6,0.0
493878,2316.0,425.0,82.6,0.0
493878,2314.0,425.0,82.6,0.0
493879,2305.0,425.0,82.6,0.0
493879,2304.0,425.0,82.6,0.0
493895,2011.0,425.0,82.6,0.0
493896,2026.0,425.0,82.6,0.0
493896,2039.0,425.0,82.6,0.0
493896,2030.0,425.0,82.6,0.0
493909,1965.0,425.0,82.6,0.0
493909,1969.0,425.0,82.6,0.0
493909,1960.0,425.0,82.6,0.0
493922,2206.0,425.0,82.6,0.0
493922,2172.0,425.0,82.6,0.0
493922,2177.0,425.0,82.6,0.0
493923,2195.0,425.0,82.6,0.0
493939,2039.0,425.0,82.6,0.0
493940,2018.0,425.0,82.6,0.0
493940,2008.0,425.0,82.6,0.0
493940,2023.0,425.0,82.6,0.0
493954,2018.0,425.0,82.6,0.0
493954,2043.0,425.0,82.6,0.0
493954,2029.0,425.0,82.6,0.0
493971,1908.0,425.0,82.6,0.0
493971,1874.0,425.0,82.6,0.0
493971,1922.0,425.0,82.6,0.0
493972,1928.0,425.0,82.6,0.0
493985,2025.0,425.0,82.6,0.0
493986,1985.0,425.0,82.6,0.0
493986,2012.0,425.0,82.6,0.0
493998,2158.0,425.0,82.6,0.0
493999,2168.0,425.0,82.6,0.0
493999,2158.0,425.0,82.6,0.0
493999,2157.0,425.0,82.6,0.0
494016,2131.0,425.0,82.6,0.0
494016,2161.0,425.0,82.6,0.0
494016,2164.0,425.0,82.6,0.0
494017,2145.0,425.0,82.6,0.0
494029,1939.0,425.0,82.6,0.0
494029,1921.0,425.0,82.6,0.0
494030,1925.0,425.0,82.6,0.0
494043,2084.0,425.0,82.6,0.0
494043,2070.0,425.0,82.6,0.0
494044,2065.0,425.0,82.6,0.0
494044,2083.0,425.0,82.6,0.0
494059,1974.0,425.0,82.6,0.0
494060,1966.0,425.0,82.6,0.0
494060,1963.0,425.0,82.6,0.0
494060,1933.0,425.0,82.6,0.0
494074,2099.0,425.0,82.6,0.0
494074,2136.0,425.0,82.6,0.0
494074,2141.0,425.0,82.6,0.0
494091,1905.0,425.0,82.6,0.0
494091,1860.0,425.0,82.6,0.0
494091,1875.0,425.0,82.6,0.0
494091,1869.0,425.0,82.6,0.0
494105,2032.0,425.0,82.6,0.0
494105,2016.0,425.0,82.6,0.0
494106,2028.0,425.0,82.6,0.0
494118,2112.0,425.0,82.6,0.0
494119,2136.0,425.0,82.6,0.0
494119,2124.0,425.0,82.6,0.0
494119,2109.0,425.0,82.6,0.0
494136,1988.0,425.0,82.6,0.0
494136,2006.0,425.0,82.6,0.0
494136,1993.0,425.0,82.6,0.0
494137,1985.0,425.0,82.6,0.0
494149,1966.0,425.0,82.6,0.0
494149,1981.0,425.0,82.6,0.0
494150,1973.0,425.0,82.6,0.0
494163,2010.0,425.0,82.6,0.0
494164,2000.0,425.0,82.6,0.0
494164,2009.0,425.0,82.6,0.0
494164,2021.0,425.0,82.6,0.0
494180,2363.0,425.0,82.6,0.0
494180,2316.0,425.0,82.6,0.0
494180,2310.0,425.0,82.6,0.0
494181,2316.0,425.0,82.6,0.0
494194,1918.0,426.0,82.6,0.0
494194,1962.0,426.0,82.6,0.0
494195,1933.0,426.0,82.6,0.0
494211,1927.0,426.0,82.6,0.0
494211,1930.0,426.0,82.6,0.0
494211,1952.0,426.0,82.6,0.0
494211,1812.0,426.0,82.6,0.0
494225,2026.0,426.0,82.6,0.0
494225,1995.0,426.0,82.6,0.0
494226,2013.0,426.0,82.6,0.0
494238,2228.0,426.0,82.6,0.0
494239,2211.0,426.0,82.6,0.0
494239,2194.0,426.0,82.6,0.0
494239,2183.0,426.0,82.6,0.0
494256,1959.0,426.0,82.6,0.0
494256,1988.0,426.0,82.6,0.0
494256,1990.0,426.0,82.6,0.0
494257,1959.0,426.0,82.6,0.0
494269,1958.0,426.0,82.6,0.0
494270,1960.0,426.0,82.6,0.0
494270,1997.0,426.0,82.6,0.0
494287,1995.0,427.0,82.6,0.0
494287,1960.0,427.0,82.6,0.0
494287,1941.0,427.0,82.6,0.0
494288,1961.0,427.0,82.6,0.0
494300,2132.0,427.0,82.6,0.0
494301,2123.0,427.0,82.6,0.0
494301,2096.0,427.0,82.6,0.0
494314,1887.0,427.0,82.6,0.0
494315,1892.0,427.0,82.6,0.0
494315,1913.0,427.0,82.6,0.0
494315,1898.0,427.0,82.6,0.0
494333,2040.0,428.0,82.6,0.0
494333,2092.0,428.0,82.6,0.0
494334,2159.0,428.0,82.6,0.0
494334,2187.0,428.0,82.6,0.0
494346,1996.0,428.0,82.6,0.0
494347,1951.0,428.0,82.6,0.0
494347,1934.0,428.0,82.6,0.0
494360,2206.0,428.0,82.6,0.0
494360,2224.0,428.0,82.6,0.0
494360,2217.0,428.0,82.6,0.0
494360,2213.0,428.0,82.6,0.0
494377,2167.0,427.0,82.6,0.0
494378,2196.0,427.0,82.6,0.0
494378,2192.0,427.0,82.6,0.0
494378,2174.0,427.0,82.6,0.0
494392,1886.0,428.0,82.6,0.0
494393,1906.0,428.0,82.6,0.0
494393,1908.0,428.0,82.6,0.0
494409,1832.0,428.0,82.6,0.0
494409,1924.0,428.0,82.6,0.0
494409,1928.0,428.0,82.6,0.0
494423,2090.0,428.0,82.6,0.0
494423,2081.0,428.0,82.6,0.0
494424,2075.0,428.0,82.6,0.0
494436,2078.0,428.0,82.6,0.0
494437,2088.0,428.0,82.6,0.0
494437,2091.0,428.0,82.6,0.0
494454,1897.0,428.0,82.6,0.0
494455,1914.0,428.0,82.6,0.0
494455,1904.0,428.0,82.6,0.0
494456,1899.0,428.0,82.6,0.0
494468,1989.0,428.0,82.6,0.0
494469,1943.0,428.0,82.6,0.0
494469,1998.0,428.0,82.6,0.0
494482,2055.0,429.0,82.6,0.0
494483,2044.0,429.0,82.6,0.0
494483,2039.0,429.0,82.6,0.0
494499,2106.0,429.0,82.6,0.0
494499,2106.0,429.0,82.6,0.0
494499,2106.0,429.0,82.6,0.0
494513,1918.0,429.0,82.6,0.0
494514,1962.0,429.0,82.6,0.0
494514,1976.0,429.0,82.6,0.0
494514,1962.0,429.0,82.6,0.0
494527,2002.0,429.0,82.6,0.0
494527,1986.0,429.0,82.6,0.0
494527,1998.0,429.0,82.6,0.0
494544,2108.0,429.0,82.6,0.0
494544,2084.0,429.0,82.6,0.0
494545,2074.0,429.0,82.6,0.0
494557,2092.0,429.0,82.6,0.0
494557,2093.0,429.0,82.6,0.0
494558,2077.0,429.0,82.6,0.0
494575,2102.0,429.0,82.6,0.0
494575,2155.0,429.0,82.6,0.0
494575,2175.0,429.0,82.6,0.0
494588,1953.0,429.0,82.6,0.0
494588,1945.0,429.0,82.6,0.0
494588,1920.0,429.0,82.6,0.0
494602,2179.0,429.0,82.6,0.0
494602,2174.0,429.0,82.6,0.0
494603,2186.0,429.0,82.6,0.0
494618,2000.0,429.0,82.6,0.0
494619,1987.0,429.0,82.6,0.0
494619,2000.0,429.0,82.6,0.0
494632,1959.0,430.0,82.6,0.0
494633,2016.0,430.0,82.6,0.0
494633,2053.0,430.0,82.6,0.0
494646,2018.0,430.0,82.6,0.0
494646,1986.0,430.0,82.6,0.0
494646,1983.0,430.0,82.6,0.0
494663,2134.0,430.0,82.6,0.0
494663,2138.0,430.0,82.6,0.0
494663,2114.0,430.0,82.6,0.0
494676,2010.0,430.0,82.6,0.0
494677,2019.0,430.0,82.6,0.0
494677,2042.0,430.0,82.6,0.0
494677,2060.0,430.0,82.6,0.0
494694,2026.0,430.0,82.6,0.0
494694,2054.0,430.0,82.6,0.0
494695,2043.0,430.0,82.6,0.0
494707,1977.0,430.0,82.6,0.0
494708,1971.0,430.0,82.6,0.0
494708,1971.0,430.0,82.6,0.0
494721,2026.0,431.0,82.6,0.0
494722,2034.0,431.0,82.6,0.0
494722,2040.0,431.0,82.6,0.0
494723,2045.0,431.0,82.6,0.0
494738,2059.0,431.0,82.6,0.0
494739,2053.0,431.0,82.6,0.0
494739,2054.0,431.0,82.6,0.0
494752,1957.0,431.0,82.6,0.0
494753,1971.0,431.0,82.6,0.0
494753,2007.0,431.0,82.6,0.0
494753,2001.0,431.0,82.6,0.0
494769,1920.0,431.0,82.6,0.0
494769,1919.0,431.0,82.6,0.0
494770,1921.0,431.0,82.6,0.0
494770,1914.0,431.0,82.6,0.0
494784,2005.0,431.0,82.6,0.0
494784,2006.0,431.0,82.6,0.0
494784,2049.0,431.0,82.6,0.0
494797,2129.0,431.0,82.6,0.0
494797,2133.0,431.0,82.6,0.0
494797,2125.0,431.0,82.6,0.0
494798,2145.0,431.0,82.6,0.0
494815,1998.0,431.0,82.6,0.0
494816,2027.0,431.0,82.6,0.0
494816,2007.0,431.0,82.6,0.0
494816,2001.0,431.0,82.6,0.0
494829,1958.0,432.0,82.6,0.0
494829,1969.0,432.0,82.6,0.0
494829,1971.0,432.0,82.6,0.0
494843,2092.0,432.0,82.6,0.0
494843,2074.0,432.0,82.6,0.0
494843,2085.0,432.0,82.6,0.0
494844,2090.0,432.0,82.6,0.0
494860,2181.0,432.0,82.6,0.0
494861,2165.0,432.0,82.6,0.0
494861,2154.0,432.0,82.6,0.0
494861,2150.0,432.0,82.6,0.0
494874,1994.0,432.0,82.6,0.0
494874,2030.0,432.0,82.6,0.0
494875,2035.0,432.0,82.6,0.0
494887,1975.0,432.0,82.6,0.0
494888,1962.0,432.0,82.6,0.0
494888,1993.0,432.0,82.6,0.0
494888,1979.0,432.0,82.6,0.0
494905,2097.0,434.0,82.6,0.0
494905,2050.0,434.0,82.6,0.0
494905,2070.0,434.0,82.6,0.0
494906,2082.0,434.0,82.6,0.0
494918,2161.0,434.0,82.6,0.0
494918,2153.0,434.0,82.6,0.0
494919,2152.0,434.0,82.6,0.0
494935,1995.0,434.0,82.6,0.0
494936,2053.0,434.0,82.6,0.0
494936,2016.0,434.0,82.6,0.0
494936,1997.0,434.0,82.6,0.0
494949,1948.0,435.0,82.6,0.0
494949,1969.0,435.0,82.6,0.0
494949,1977.0,435.0,82.6,0.0
494963,2091.0,435.0,82.6,0.0
494963,2057.0,435.0,82.6,0.0
494963,2053.0,435.0,82.6,0.0
494964,2078.0,435.0,82.6,0.0
494980,2208.0,435.0,82.6,0.0
494981,2176.0,435.0,82.6,0.0
494981,2157.0,435.0,82.6,0.0
494981,2158.0,435.0,82.6,0.0
494994,2021.0,436.0,82.6,0.0
494994,2082.0,436.0,82.6,0.0
494994,2086.0,436.0,82.6,0.0
495007,1986.0,436.0,82.6,0.0
495007,1977.0,436.0,82.6,0.0
495007,1989.0,436.0,82.6,0.0
495008,1979.0,436.0,82.6,0.0
495024,2109.0,437.0,82.6,0.0
495025,2087.0,437.0,82.6,0.0
495025,2082.0,437.0,82.6,0.0
495025,2094.0,437.0,82.6,0.0
495038,2122.0,438.0,82.6,0.0
495038,2103.0,438.0,82.6,0.0
495038,2083.0,438.0,82.6,0.0
495055,2003.0,438.0,82.6,0.0
495055,2060.0,438.0,82.6,0.0
495056,2053.0,438.0,82.6,0.0
495056,2034.0,438.0,82.6,0.0
495068,1958.0,438.0,82.6,0.0
495069,1961.0,438.0,82.6,0.0
495069,1969.0,438.0,82.6,0.0
495082,2240.0,438.0,82.6,0.0
495083,2189.0,438.0,82.6,0.0
495083,2174.0,438.0,82.6,0.0
495083,2190.0,438.0,82.6,0.0
495100,2190.0,439.0,82.6,0.0
495100,2162.0,439.0,82.6,0.0
495101,2150.0,439.0,82.6,0.0
495101,2142.0,439.0,82.6,0.0
495113,1937.0,439.0,82.6,0.0
495114,1949.0,439.0,82.6,0.0
495114,1945.0,439.0,82.6,0.0
495130,1938.0,439.0,82.6,0.0
495131,1918.0,439.0,82.6,0.0
495131,1971.0,439.0,82.6,0.0
495131,1957.0,439.0,82.6,0.0
495144,2035.0,440.0,82.6,0.0
495144,2015.0,440.0,82.6,0.0
495144,2008.0,440.0,82.6,0.0
495157,2555.0,440.0,82.6,0.0
495157,2579.0,440.0,82.6,0.0
495157,2580.0,440.0,82.6,0.0
495158,2610.0,440.0,82.6,0.0
495175,1823.0,440.0,82.6,0.0
495176,1871.0,440.0,82.6,0.0
495176,1892.0,440.0,82.6,0.0
495176,1837.0,440.0,82.6,0.0
495190,1967.0,440.0,82.6,0.0
495190,2023.0,440.0,82.6,0.0
495191,2029.0,440.0,82.6,0.0
495191,2018.0,440.0,82.6,0.0
495204,2034.0,441.0,82.6,0.0
495204,2006.0,441.0,82.6,0.0
495204,2026.0,441.0,82.6,0.0
495221,2160.0,441.0,82.6,0.0
495221,2140.0,441.0,82.6,0.0
495221,2123.0,441.0,82.6,0.0
495222,2117.0,441.0,82.6,0.0
495234,2019.0,441.0,82.6,0.0
495235,2075.0,441.0,82.6,0.0
495235,2076.0,441.0,82.6,0.0
495247,1966.0,441.0,82.6,0.0
495248,1962.0,441.0,82.6,0.0
495248,1972.0,441.0,82.6,0.0
495248,1978.0,441.0,82.6,0.0
495265,2058.0,441.0,82.6,0.0
495265,2037.0,441.0,82.6,0.0
495265,2036.0,441.0,82.6,0.0
495265,2054.0,441.0,82.6,0.0
495279,2170.0,441.0,82.6,0.0
495279,2155.0,441.0,82.6,0.0
495279,2152.0,441.0,82.6,0.0
495295,2036.0,441.0,82.6,0.0
495296,2082.0,441.0,82.6,0.0
495296,2070.0,441.0,82.6,0.0
495296,2063.0,441.0,82.6,0.0
495310,1928.0,441.0,82.6,0.0
495310,1940.0,441.0,82.6,0.0
495310,1936.0,441.0,82.6,0.0
495323,2034.0,441.0,82.6,0.0
495323,2015.0,441.0,82.6,0.0
495323,2005.0,441.0,82.6,0.0
495324,2026.0,441.0,82.6,0.0
495340,2128.0,441.0,82.6,0.0
495341,2103.0,441.0,82.6,0.0
495341,2093.0,441.0,82.6,0.0
495341,2091.0,441.0,82.6,0.0
495354,1966.0,441.0,82.6,0.0
495354,2009.0,441.0,82.6,0.0
495354,2010.0,441.0,82.6,0.0
495367,1996.0,441.0,82.6,0.0
495367,1986.0,441.0,82.6,0.0
495367,1998.0,441.0,82.6,0.0
495367,2002.0,441.0,82.6,0.0
495384,2193.0,441.0,82.6,0.0
495384,2163.0,441.0,82.6,0.0
495385,2142.0,441.0,82.6,0.0
495385,2147.0,441.0,82.6,0.0
495398,2231.0,441.0,82.6,0.0
495399,2209.0,441.0,82.6,0.0
495399,2215.0,441.0,82.6,0.0
495415,2098.0,441.0,82.6,0.0
495415,2159.0,441.0,82.6,0.0
495415,2168.0,441.0,82.6,0.0
495416,2154.0,441.0,82.6,0.0
495429,1906.0,440.0,82.6,0.0
495430,1906.0,440.0,82.6,0.0
495430,1924.0,440.0,82.6,0.0
495442,2149.0,440.0,82.6,0.0
495443,2109.0,440.0,82.6,0.0
495443,2121.0,440.0,82.6,0.0
495443,2149.0,440.0,82.6,0.0
495460,2306.0,440.0,82.6,0.0
495460,2272.0,440.0,82.6,0.0
495460,2277.0,440.0,82.6,0.0
495460,2262.0,440.0,82.6,0.0
495473,1922.0,440.0,82.6,0.0
495473,1998.0,440.0,82.6,0.0
495474,1990.0,440.0,82.6,0.0
495486,2019.0,440.0,82.6,0.0
495486,2013.0,440.0,82.6,0.0
495487,2040.0,440.0,82.6,0.0
495487,2032.0,440.0,82.6,0.0
495503,2095.0,440.0,82.6,0.0
495504,2078.0,440.0,82.6,0.0
495504,2078.0,440.0,82.6,0.0
495504,2113.0,440.0,82.6,0.0
495517,2174.0,440.0,82.6,0.0
495517,2157.0,440.0,82.6,0.0
495517,2120.0,440.0,82.6,0.0
495534,1978.0,440.0,82.6,0.0
495535,2031.0,440.0,82.6,0.0
495535,2043.0,440.0,82.6,0.0
495535,2004.0,440.0,82.6,0.0
495548,1936.0,439.0,82.6,0.0
495549,1955.0,439.0,82.6,0.0
495549,1973.0,439.0,82.6,0.0
495562,2191.0,439.0,82.6,0.0
495562,2143.0,439.0,82.6,0.0
495562,2131.0,439.0,82.6,0.0
495563,2156.0,439.0,82.6,0.0
495579,1988.0,439.0,82.6,0.0
495580,1976.0,439.0,82.6,0.0
495580,1942.0,439.0,82.6,0.0
495580,1944.0,439.0,82.6,0.0
495593,2012.0,439.0,82.6,0.0
495593,2066.0,439.0,82.6,0.0
495593,2073.0,439.0,82.6,0.0
495606,1937.0,439.0,82.6,0.0
495607,1958.0,439.0,82.6,0.0
495607,1956.0,439.0,82.6,0.0
495607,1975.0,439.0,82.6,0.0
495624,2173.0,439.0,82.6,0.0
495624,2106.0,439.0,82.6,0.0
495624,2112.0,439.0,82.6,0.0
495624,2124.0,439.0,82.6,0.0
495638,2045.0,439.0,82.6,0.0
495638,2037.0,439.0,82.6,0.0
495639,2019.0,439.0,82.6,0.0
495655,2009.0,439.0,82.6,0.0
495655,2028.0,439.0,82.6,0.0
495655,2050.0,439.0,82.6,0.0
495655,2050.0,439.0,82.6,0.0
495669,1939.0,439.0,82.6,0.0
495669,1941.0,439.0,82.6,0.0
495670,1945.0,439.0,82.6,0.0
495682,2218.0,439.0,82.6,0.0
495683,2181.0,439.0,82.6,0.0
495683,2163.0,439.0,82.6,0.0
495683,2174.0,439.0,82.6,0.0
495700,2094.0,439.0,82.6,0.0
495701,2096.0,439.0,82.6,0.0
495701,2048.0,439.0,82.6,0.0
495701,2044.0,439.0,82.6,0.0
495714,2058.0,439.0,82.6,0.0
495714,2144.0,439.0,82.6,0.0
495714,2167.0,439.0,82.6,0.0
495731,1822.0,439.0,82.6,0.0
495732,1803.0,439.0,82.6,0.0
495732,1799.0,439.0,82.6,0.0
495732,1805.0,439.0,82.6,0.0
495745,2082.0,439.0,82.6,0.0
495745,2056.0,439.0,82.6,0.0
495745,2065.0,439.0,82.6,0.0
495759,2214.0,438.0,82.6,0.0
495759,2210.0,438.0,82.6,0.0
495760,2213.0,438.0,82.6,0.0
495760,2217.0,438.0,82.6,0.0
495778,2296.0,438.0,111.5,0.0
495778,2302.0,438.0,111.5,0.0
495778,2308.0,438.0,111.5,0.0
495778,2313.0,438.0,111.5,0.0
495791,1856.0,438.0,111.5,0.0
495791,1850.0,438.0,111.5,0.0
495792,1831.0,438.0,111.5,0.0
495804,2064.0,438.0,111.5,0.0
495805,2059.0,438.0,111.5,0.0
495805,2069.0,438.0,111.5,0.0
495805,2082.0,438.0,111.5,0.0
495822,2357.0,438.0,111.5,0.0
495822,2310.0,438.0,111.5,0.0
495822,2298.0,438.0,111.5,0.0
495823,2318.0,438.0,111.5,0.0
495835,1975.0,438.0,111.5,0.0
495836,2017.0,438.0,111.5,0.0
495836,1999.0,438.0,111.5,0.0
495849,1935.0,438.0,111.5,0.0
495850,1964.0,438.0,111.5,0.0
495850,1975.0,438.0,111.5,0.0
495850,1946.0,438.0,111.5,0.0
495867,1974.0,438.0,111.5,0.0
495867,1959.0,438.0,111.5,0.0
495868,1988.0,438.0,111.5,0.0
495868,1994.0,438.0,111.5,0.0
495880,2423.0,438.0,111.5,0.0
495881,2366.0,438.0,111.5,0.0
495881,2382.0,438.0,111.5,0.0
495898,2248.0,438.0,111.5,0.0
495899,2273.0,438.0,111.5,0.0
495899,2234.0,438.0,111.5,0.0
495899,2198.0,438.0,111.5,0.0
495912,1859.0,438.0,111.5,0.0
495912,1901.0,438.0,111.5,0.0
495912,1897.0,438.0,111.5,0.0
495925,2062.0,438.0,111.5,0.0
495925,2022.0,438.0,111.5,0.0
495925,2048.0,438.0,111.5,0.0
495926,2096.0,438.0,111.5,0.0
495942,2167.0,438.0,111.5,0.0
495943,2085.0,438.0,111.5,0.0
495943,2069.0,438.0,111.5,0.0
495943,2101.0,438.0,111.5,0.0
495956,2081.0,438.0,111.5,0.0
495957,2087.0,438.0,111.5,0.0
495957,2037.0,438.0,111.5,0.0
495970,1901.0,438.0,111.5,0.0
495970,1938.0,438.0,111.5,0.0
495970,1983.0,438.0,111.5,0.0
495970,1968.0,438.0,111.5,0.0
495987,1941.0,437.0,111.5,0.0
495988,1890.0,437.0,111.5,0.0
495988,1918.0,437.0,111.5,0.0
495988,1927.0,437.0,111.5,0.0
496001,2146.0,437.0,111.5,0.0
496001,2105.0,437.0,111.5,0.0
496001,2094.0,437.0,111.5,0.0
496018,1908.0,437.0,111.5,0.0
496019,1957.0,437.0,111.5,0.0
496019,1935.0,437.0,111.5,0.0
496019,1881.0,437.0,111.5,0.0
496032,1933.0,437.0,111.5,0.0
496032,1979.0,437.0,111.5,0.0
496032,2013.0,437.0,111.5,0.0
496046,2013.0,437.0,111.5,0.0
496047,1952.0,437.0,111.5,0.0
496047,1928.0,437.0,111.5,0.0
496047,1960.0,437.0,111.5,0.0
496063,2109.0,437.0,111.5,0.0
496063,2105.0,437.0,111.5,0.0
496063,2068.0,437.0,111.5,0.0
496064,2057.0,437.0,111.5,0.0
496077,2129.0,437.0,111.5,0.0
496078,2163.0,437.0,111.5,0.0
496078,2139.0,437.0,111.5,0.0
496094,1909.0,437.0,111.5,0.0
496094,1920.0,437.0,111.5,0.0
496094,1935.0,437.0,111.5,0.0
496094,1969.0,437.0,111.5,0.0
496108,1984.0,437.0,111.5,0.0
496108,1960.0,437.0,111.5,0.0
496109,1962.0,437.0,111.5,0.0
496121,2190.0,436.0,111.5,0.0
496122,2191.0,436.0,111.5,0.0
496122,2189.0,436.0,111.5,0.0
496122,2144.0,436.0,111.5,0.0
496140,2104.0,436.0,111.5,0.0
496140,2126.0,436.0,111.5,0.0
496140,2125.0,436.0,111.5,0.0
496140,2127.0,436.0,111.5,0.0
496153,1998.0,436.0,111.5,0.0
496153,2048.0,436.0,111.5,0.0
496154,2044.0,436.0,111.5,0.0
496167,1965.0,436.0,111.5,0.0
496168,1937.0,436.0,111.5,0.0
496168,1914.0,436.0,111.5,0.0
496168,1907.0,436.0,111.5,0.0
496184,2132.0,436.0,111.5,0.0
496185,2119.0,436.0,111.5,0.0
496185,2117.0,436.0,111.5,0.0
496185,2102.0,436.0,111.5,0.0
496199,2046.0,435.0,111.5,0.0
496199,2041.0,435.0,111.5,0.0
496199,2036.0,435.0,111.5,0.0
496216,2185.0,435.0,111.5,0.0
496217,2201.0,435.0,111.5,0.0
496217,2205.0,435.0,111.5,0.0
496217,2199.0,435.0,111.5,0.0
496230,1907.0,435.0,111.5,0.0
496230,1894.0,435.0,111.5,0.0
496230,1879.0,435.0,111.5,0.0
496243,2227.0,434.0,111.5,0.0
496243,2213.0,434.0,111.5,0.0
496243,2212.0,434.0,111.5,0.0
496261,1932.0,434.0,111.5,0.0
496261,1936.0,434.0,111.5,0.0
496262,1905.0,434.0,111.5,0.0
496262,1905.0,434.0,111.5,0.0
496275,2226.0,433.0,111.5,0.0
496276,2262.0,433.0,103.6,0.0
496276,2268.0,433.0,103.6,0.0
496288,1907.0,433.0,103.6,0.0
496289,1894.0,433.0,103.6,0.0
496289,1893.0,433.0,103.6,0.0
496289,1893.0,433.0,103.6,0.0
496306,2006.0,432.0,103.6,0.0
496306,2011.0,432.0,103.6,0.0
496306,2008.0,432.0,103.6,0.0
496307,2013.0,432.0,103.6,0.0
496319,2002.0,432.0,103.6,0.0
496320,2005.0,432.0,103.6,0.0
496320,1998.0,432.0,103.6,0.0
496337,2210.0,432.0,103.6,0.0
496337,2240.0,432.0,103.6,0.0
496337,2248.0,432.0,103.6,0.0
496337,2243.0,432.0,103.6,0.0
496350,1889.0,431.0,103.6,0.0
496351,1873.0,431.0,103.6,0.0
496351,1863.0,431.0,103.6,0.0
496363,2008.0,431.0,103.6,0.0
496364,2014.0,431.0,103.6,0.0
496364,2027.0,431.0,103.6,0.0
496364,2030.0,431.0,103.6,0.0
496382,2114.0,431.0,103.6,0.0
496382,2073.0,431.0,103.6,0.0
496382,2078.0,431.0,103.6,0.0
496383,2089.0,431.0,103.6,0.0
496396,2150.0,431.0,103.6,0.0
496396,2176.0,431.0,103.6,0.0
496397,2176.0,431.0,103.6,0.0
496409,1929.0,431.0,103.6,0.0
496410,1928.0,431.0,103.6,0.0
496410,1908.0,431.0,103.6,0.0
496410,1888.0,431.0,103.6,0.0
496427,1981.0,430.0,103.6,0.0
496427,1985.0,430.0,103.6,0.0
496427,1994.0,430.0,103.6,0.0
496428,1986.0,430.0,103.6,0.0
496440,2110.0,430.0,103.6,0.0
496441,2099.0,430.0,103.6,0.0
496441,2134.0,430.0,103.6,0.0
496457,1855.0,429.0,103.6,0.0
496458,1833.0,429.0,103.6,0.0
496459,1818.0,429.0,103.6,0.0
496459,1810.0,429.0,103.6,0.0
496471,2001.0,429.0,103.6,0.0
496472,2042.0,429.0,103.6,0.0
496472,2056.0,429.0,103.6,0.0
496486,1985.0,429.0,103.6,0.0
496486,1958.0,429.0,103.6,0.0
496486,1955.0,429.0,103.6,0.0
496487,1975.0,429.0,103.6,0.0
496505,3156.0,429.0,103.6,0.0
496505,3021.0,429.0,103.6,0.0
496505,3025.0,429.0,103.6,0.0
496506,3004.0,429.0,103.6,0.0
496518,1411.0,429.0,103.6,0.0
496519,1410.0,429.0,103.6,0.0
496519,1369.0,429.0,103.6,0.0
496531,2155.0,428.0,103.6,0.0
496532,2187.0,428.0,103.6,0.0
496532,2273.0,428.0,103.6,0.0
496532,2271.0,428.0,103.6,0.0
496549,1863.0,429.0,103.6,0.0
496549,1819.0,429.0,103.6,0.0
496550,1868.0,429.0,103.6,0.0
496550,1929.0,429.0,103.6,0.0
496562,2159.0,429.0,103.6,0.0
496563,2081.0,429.0,103.6,0.0
496563,2031.0,429.0,103.6,0.0
496580,1990.0,429.0,103.6,0.0
496580,2062.0,429.0,103.6,0.0
496580,2053.0,429.0,103.6,0.0
496580,1989.0,429.0,103.6,0.0
496593,1887.0,429.0,103.6,0.0
496594,1962.0,429.0,103.6,0.0
496594,2029.0,429.0,103.6,0.0
496607,2005.0,428.0,103.6,0.0
496608,1859.0,428.0,103.6,0.0
496608,1914.0,428.0,103.6,0.0
496608,1842.0,428.0,103.6,0.0
496626,2030.0,428.0,103.6,0.0
496627,2023.0,428.0,103.6,0.0
496627,1980.0,428.0,103.6,0.0
496627,1963.0,428.0,103.6,0.0
496640,2132.0,428.0,103.6,0.0
496640,2144.0,428.0,103.6,0.0
496640,2156.0,428.0,103.6,0.0
496654,1971.0,428.0,103.6,0.0
496654,1983.0,428.0,103.6,0.0
496655,2026.0,428.0,103.6,0.0
496655,2059.0,428.0,103.6,0.0
496671,1933.0,428.0,103.6,0.0
496671,1912.0,428.0,103.6,0.0
496671,1870.0,428.0,103.6,0.0
496671,1881.0,428.0,103.6,0.0
496685,2053.0,428.0,103.6,0.0
496685,2022.0,428.0,103.6,0.0
496686,2012.0,428.0,103.6,0.0
496701,2084.0,428.0,103.6,0.0
496702,2081.0,428.0,103.6,0.0
496702,2102.0,428.0,103.6,0.0
496702,2108.0,428.0,103.6,0.0
496716,2039.0,427.0,103.6,0.0
496716,2030.0,427.0,103.6,0.0
496716,2059.0,427.0,103.6,0.0
496729,1966.0,427.0,103.6,0.0
496729,1974.0,427.0,103.6,0.0
496729,1958.0,427.0,103.6,0.0
496730,1936.0,427.0,103.6,0.0
496747,1959.0,427.0,103.6,0.0
496748,1975.0,427.0,103.6,0.0
496748,1979.0,427.0,103.6,0.0
496748,1961.0,427.0,103.6,0.0
496761,2093.0,427.0,103.6,0.0
496761,2073.0,427.0,103.6,0.0
496761,2102.0,427.0,103.6,0.0
496775,2014.0,428.0,103.6,0.0
496775,2008.0,428.0,103.6,0.0
496776,2000.0,428.0,103.6,0.0
496776,1991.0,428.0,103.6,0.0
496792,1948.0,428.0,103.6,0.0
496792,1956.0,428.0,103.6,0.0
496793,1961.0,428.0,103.6,0.0
496793,1986.0,428.0,103.6,0.0
496807,1972.0,428.0,103.6,0.0
496807,1983.0,428.0,103.6,0.0
496807,1988.0,428.0,103.6,0.0
496824,1997.0,428.0,103.6,0.0
496824,1976.0,428.0,103.6,0.0
496825,1977.0,428.0,103.6,0.0
496825,2020.0,428.0,103.6,0.0
496837,2210.0,428.0,103.6,0.0
496838,2196.0,428.0,103.6,0.0
496838,2179.0,428.0,103.6,0.0
496851,1888.0,428.0,103.6,0.0
496851,1904.0,428.0,103.6,0.0
496851,1903.0,428.0,103.6,0.0
496851,1872.0,428.0,103.6,0.0
496869,1953.0,428.0,103.6,0.0
496869,1940.0,428.0,103.6,0.0
496870,1965.0,428.0,103.6,0.0
496870,1965.0,428.0,103.6,0.0
496883,2011.0,428.0,103.6,0.0
496884,1993.0,428.0,103.6,0.0
496884,2013.0,428.0,103.6,0.0
496897,2281.0,428.0,103.6,0.0
496897,2290.0,428.0,103.6,0.0
496897,2283.0,428.0,103.6,0.0
496897,2279.0,428.0,103.6,0.0
496914,1934.0,428.0,103.6,0.0
496915,1980.0,428.0,103.6,0.0
496915,2018.0,428.0,103.6,0.0
496915,2005.0,428.0,103.6,0.0
496928,1960.0,428.0,103.6,0.0
496929,1974.0,428.0,103.6,0.0
496929,1979.0,428.0,103.6,0.0
496942,2152.0,428.0,103.6,0.0
496942,2099.0,428.0,103.6,0.0
496943,2088.0,428.0,103.6,0.0
496943,2126.0,428.0,103.6,0.0
496960,2660.0,428.0,103.6,0.0
496960,2630.0,428.0,103.6,0.0
496960,2609.0,428.0,103.6,0.0
496961,2629.0,428.0,103.6,0.0
496974,1782.0,428.0,103.6,0.0
496974,1809.0,428.0,103.6,0.0
496975,1780.0,428.0,103.6,0.0
496991,1939.0,428.0,103.6,0.0
496991,1959.0,428.0,103.6,0.0
496991,2001.0,428.0,103.6,0.0
496991,2003.0,428.0,103.6,0.0
497005,2006.0,428.0,103.6,0.0
497005,1958.0,428.0,103.6,0.0
497006,1988.0,428.0,103.6,0.0
497018,2259.0,429.0,103.6,0.0
497019,2279.0,429.0,103.6,0.0
497019,2227.0,429.0,103.6,0.0
497019,2193.0,429.0,103.6,0.0
497036,2005.0,429.0,103.6,0.0
497036,2070.0,429.0,103.6,0.0
497037,2069.0,429.0,103.6,0.0
497037,2047.0,429.0,103.6,0.0
497049,1923.0,429.0,103.6,0.0
497050,1942.0,429.0,103.6,0.0
497050,1976.0,429.0,103.6,0.0
497067,2030.0,429.0,103.6,0.0
497067,1972.0,429.0,103.6,0.0
497067,1949.0,429.0,103.6,0.0
497068,1988.0,429.0,103.6,0.0
497080,2020.0,429.0,103.6,0.0
497081,2008.0,429.0,103.6,0.0
497081,1970.0,429.0,103.6,0.0
497094,1896.0,429.0,103.6,0.0
497095,1920.0,429.0,103.6,0.0
497095,1950.0,429.0,103.6,0.0
497095,1942.0,429.0,103.6,0.0
497113,1964.0,429.0,103.6,0.0
497114,1980.0,429.0,103.6,0.0
497114,2011.0,429.0,103.6,0.0
497114,2043.0,429.0,103.6,0.0
497127,1980.0,430.0,103.6,0.0
497127,1945.0,430.0,103.6,0.0
497127,1933.0,430.0,103.6,0.0
497140,1985.0,430.0,103.6,0.0
497140,2008.0,430.0,103.6,0.0
497141,2018.0,430.0,103.6,0.0
497141,1970.0,430.0,103.6,0.0
497158,2053.0,430.0,103.6,0.0
497158,2074.0,430.0,103.6,0.0
497158,2090.0,430.0,103.6,0.0
497158,2086.0,430.0,103.6,0.0
497171,1921.0,430.0,103.6,0.0
497171,1906.0,430.0,103.6,0.0
497172,1921.0,430.0,103.6,0.0
497185,2017.0,430.0,103.6,0.0
497186,2014.0,430.0,103.6,0.0
497186,1997.0,430.0,103.6,0.0
497186,1989.0,430.0,103.6,0.0
497203,2004.0,430.0,103.6,0.0
497203,2013.0,430.0,103.6,0.0
497203,2004.0,430.0,103.6,0.0
497204,1997.0,430.0,103.6,0.0
497216,2073.0,430.0,103.6,0.0
497216,2114.0,430.0,103.6,0.0
497217,2123.0,430.0,103.6,0.0
497234,1961.0,430.0,103.6,0.0
497234,1975.0,430.0,103.6,0.0
497235,1965.0,430.0,103.6,0.0
497235,1979.0,430.0,103.6,0.0
497248,2013.0,430.0,103.6,0.0
497248,2003.0,430.0,103.6,0.0
497249,1977.0,430.0,103.6,0.0
497263,2039.0,430.0,103.6,0.0
497263,2036.0,430.0,103.6,0.0
497263,2042.0,430.0,103.6,0.0
497264,2050.0,430.0,103.6,0.0
497279,2076.0,430.0,103.6,0.0
497280,2062.0,430.0,103.6,0.0
497280,2061.0,430.0,103.6,0.0
497280,2088.0,430.0,103.6,0.0
497293,1946.0,429.0,103.6,0.0
497294,1966.0,429.0,103.6,0.0
497294,1952.0,429.0,103.6,0.0
497307,1983.0,429.0,103.6,0.0
497307,1995.0,429.0,103.6,0.0
497307,2002.0,429.0,103.6,0.0
497307,2002.0,429.0,103.6,0.0
497324,2076.0,430.0,103.6,0.0
497324,2051.0,430.0,103.6,0.0
497325,2069.0,430.0,103.6,0.0
497325,2077.0,430.0,103.6,0.0
497337,2235.0,430.0,103.6,0.0
497338,2219.0,430.0,103.6,0.0
497338,2218.0,430.0,103.6,0.0
497355,2030.0,430.0,103.6,0.0
497355,2069.0,430.0,103.6,0.0
497356,2062.0,430.0,103.6,0.0
497356,2048.0,430.0,103.6,0.0
497368,1960.0,430.0,103.6,0.0
497369,1963.0,430.0,103.6,0.0
497369,1970.0,430.0,103.6,0.0
497382,2050.0,431.0,103.6,0.0
497383,2026.0,431.0,103.6,0.0
497383,2029.0,431.0,103.6,0.0
497383,2061.0,431.0,103.6,0.0
497399,2173.0,431.0,103.6,0.0
497399,2150.0,431.0,103.6,0.0
497400,2129.0,431.0,103.6,0.0
497400,2139.0,431.0,103.6,0.0
497413,1976.0,431.0,103.6,0.0
497414,2016.0,431.0,103.6,0.0
497414,1987.0,431.0,103.6,0.0
497430,1905.0,431.0,103.6,0.0
497430,1904.0,431.0,103.6,0.0
497430,1929.0,431.0,103.6,0.0
497431,1923.0,431.0,103.6,0.0
497444,2067.0,431.0,103.6,0.0
497445,2041.0,431.0,103.6,0.0
497445,2060.0,431.0,103.6,0.0
497457,2136.0,431.0,103.6,0.0
497458,2138.0,431.0,103.6,0.0
497458,2111.0,431.0,103.6,0.0
497458,2099.0,431.0,103.6,0.0
497476,1982.0,431.0,103.6,0.0
497476,2025.0,431.0,103.6,0.0
497476,1993.0,431.0,103.6,0.0
497477,1997.0,431.0,103.6,0.0
497489,1929.0,431.0,103.6,0.0
497490,1959.0,431.0,103.6,0.0
497490,1979.0,431.0,103.6,0.0
497503,2069.0,431.0,103.6,0.0
497504,2040.0,431.0,103.6,0.0
497504,2033.0,431.0,103.6,0.0
497504,2046.0,431.0,103.6,0.0
497520,2185.0,431.0,103.6,0.0
497520,2187.0,431.0,103.6,0.0
497520,2161.0,431.0,103.6,0.0
497521,2152.0,431.0,103.6,0.0
497534,1891.0,432.0,103.6,0.0
497534,1893.0,432.0,103.6,0.0
497535,1883.0,432.0,103.6,0.0
497551,1972.0,432.0,103.6,0.0
497552,1980.0,432.0,103.6,0.0
497552,2013.0,432.0,103.6,0.0
497552,2026.0,432.0,103.6,0.0
497565,2046.0,432.0,103.6,0.0
497565,1989.0,432.0,103.6,0.0
497565,1990.0,432.0,103.6,0.0
497578,2144.0,432.0,103.6,0.0
497578,2163.0,432.0,103.6,0.0
497579,2164.0,432.0,103.6,0.0
497579,2133.0,432.0,103.6,0.0
497596,1715.0,432.0,103.6,0.0
497597,1737.0,432.0,103.6,0.0
497597,1742.0,432.0,103.6,0.0
497597,1719.0,432.0,103.6,0.0
497611,2026.0,432.0,103.6,0.0
497611,2032.0,432.0,103.6,0.0
497612,2057.0,432.0,103.6,0.0
497624,2085.0,432.0,103.6,0.0
497625,2052.0,432.0,103.6,0.0
497625,2016.0,432.0,103.6,0.0
497625,2013.0,432.0,103.6,0.0
497642,2166.0,433.0,103.6,0.0
497643,2156.0,433.0,103.6,0.0
497643,2139.0,433.0,103.6,0.0
497643,2115.0,433.0,103.6,0.0
497656,2002.0,433.0,103.6,0.0
497656,2057.0,433.0,103.6,0.0
497656,2070.0,433.0,103.6,0.0
497669,1958.0,433.0,103.6,0.0
497669,1944.0,433.0,103.6,0.0
497669,1933.0,433.0,103.6,0.0
497670,1966.0,433.0,103.6,0.0
497686,2056.0,434.0,103.6,0.0
497687,2007.0,434.0,103.6,0.0
497687,1989.0,434.0,103.6,0.0
497687,1987.0,434.0,103.6,0.0
497700,1974.0,434.0,103.6,0.0
497701,1978.0,434.0,103.6,0.0
497701,1958.0,434.0,103.6,0.0
497717,2136.0,434.0,103.6,0.0
497717,2147.0,434.0,103.6,0.0
497718,2166.0,434.0,103.6,0.0
497718,2181.0,434.0,103.6,0.0
497731,1904.0,435.0,103.6,0.0
497732,1903.0,435.0,103.6,0.0
497732,1905.0,435.0,103.6,0.0
497744,2030.0,435.0,103.6,0.0
497745,2031.0,435.0,103.6,0.0
497745,2031.0,435.0,103.6,0.0
497745,2022.0,435.0,103.6,0.0
497762,2176.0,436.0,103.6,0.0
497763,2168.0,436.0,103.6,0.0
497763,2195.0,436.0,103.6,0.0
497763,2167.0,436.0,103.6,0.0
497775,2080.0,436.0,103.6,0.0
497776,2116.0,436.0,103.6,0.0
497776,2136.0,436.0,103.6,0.0
497789,1965.0,436.0,103.6,0.0
497789,1960.0,436.0,103.6,0.0
497789,1951.0,436.0,103.6,0.0
497806,2041.0,437.0,103.6,0.0
497806,2017.0,437.0,103.6,0.0
497806,2029.0,437.0,103.6,0.0
497807,2043.0,437.0,103.6,0.0
497820,2208.0,437.0,103.6,0.0
497821,2192.0,437.0,103.6,0.0
497821,2193.0,437.0,103.6,0.0
497837,2028.0,437.0,103.6,0.0
497837,2051.0,437.0,103.6,0.0
497837,2030.0,437.0,103.6,0.0
497837,2017.0,437.0,103.6,0.0
497851,1935.0,438.0,103.6,0.0
497851,1956.0,438.0,103.6,0.0
497852,1950.0,438.0,103.6,0.0
497864,2021.0,438.0,103.6,0.0
497865,2002.0,438.0,103.6,0.0
497865,2011.0,438.0,103.6,0.0
497865,2038.0,438.0,103.6,0.0
497882,2145.0,439.0,103.6,0.0
497882,2100.0,439.0,103.6,0.0
497882,2092.0,439.0,103.6,0.0
497883,2098.0,439.0,103.6,0.0
497895,2039.0,439.0,103.6,0.0
497896,2075.0,439.0,103.6,0.0
497896,2036.0,439.0,103.6,0.0
497912,1867.0,439.0,103.6,0.0
497913,1865.0,439.0,103.6,0.0
497913,1899.0,439.0,103.6,0.0
497913,1915.0,439.0,103.6,0.0
497926,2038.0,439.0,103.6,0.0
497926,2021.0,439.0,103.6,0.0
497926,2051.0,439.0,103.6,0.0
497940,2124.0,440.0,103.6,0.0
497940,2122.0,440.0,103.6,0.0
497940,2097.0,440.0,103.6,0.0
497941,2089.0,440.0,103.6,0.0
497957,2138.0,440.0,103.6,0.0
497958,2163.0,440.0,103.6,0.0
497958,2163.0,440.0,103.6,0.0
497958,2141.0,440.0,103.6,0.0
497972,1891.0,440.0,103.6,0.0
497972,1879.0,440.0,103.6,0.0
497972,1907.0,440.0,103.6,0.0
497985,2055.0,440.0,103.6,0.0
497985,2028.0,440.0,103.6,0.0
497986,2031.0,440.0,103.6,0.0
497986,2037.0,440.0,103.6,0.0
498003,2078.0,440.0,103.6,0.0
498003,2058.0,440.0,103.6,0.0
498003,2051.0,440.0,103.6,0.0
498004,2051.0,440.0,103.6,0.0
498016,2222.0,440.0,103.6,0.0
498017,2253.0,440.0,103.6,0.0
498017,2247.0,440.0,103.6,0.0
498034,1887.0,441.0,103.6,0.0
498035,1943.0,441.0,103.6,0.0
498035,1980.0,441.0,103.6,0.0
498035,1977.0,441.0,103.6,0.0
498048,2005.0,441.0,103.6,0.0
498048,2022.0,441.0,103.6,0.0
498048,1989.0,441.0,103.6,0.0
498062,2114.0,440.0,103.6,0.0
498062,2097.0,440.0,103.6,0.0
498063,2083.0,440.0,103.6,0.0
498063,2093.0,440.0,103.6,0.0
498081,2324.0,440.0,103.6,0.0
498081,2325.0,440.0,103.6,0.0
498082,2297.0,440.0,103.6,0.0
498082,2291.0,440.0,103.6,0.0
498094,2115.0,440.0,103.6,0.0
498095,2200.0,440.0,103.6,0.0
498095,2233.0,440.0,103.6,0.0
498109,1890.0,440.0,103.6,0.0
498109,1877.0,440.0,103.6,0.0
498110,1832.0,440.0,103.6,0.0
498110,1817.0,440.0,103.6,0.0
498126,2117.0,440.0,103.6,0.0
498126,2063.0,440.0,103.6,0.0
498127,2065.0,440.0,103.6,0.0
498127,2058.0,440.0,103.6,0.0
498140,2234.0,441.0,103.6,0.0
498141,2244.0,441.0,103.6,0.0
498141,2220.0,441.0,103.6,0.0
498158,2246.0,441.0,103.6,0.0
498158,2280.0,441.0,103.6,0.0
498159,2242.0,441.0,103.6,0.0
498159,2210.0,441.0,103.6,0.0
498173,1930.0,440.0,103.6,0.0
498173,2029.0,440.0,103.6,0.0
498174,2098.0,440.0,103.6,0.0
498191,1723.0,440.0,103.6,0.0
498191,1761.0,440.0,103.6,0.0
498192,1745.0,440.0,103.6,0.0
498204,2158.0,440.0,103.6,0.0
498205,2120.0,440.0,103.6,0.0
498205,2088.0,440.0,103.6,0.0
498219,2355.0,440.0,103.6,0.0
498219,2357.0,440.0,103.6,0.0
498219,2367.0,440.0,103.6,0.0
498235,2288.0,440.0,103.6,0.0
498236,2345.0,440.0,103.6,0.0
498236,2355.0,440.0,103.6,0.0
498250,1804.0,440.0,103.6,0.0
498250,1802.0,440.0,103.6,0.0
498250,1780.0,440.0,103.6,0.0
498267,2053.0,440.0,103.6,0.0
498267,2003.0,440.0,103.6,0.0
498267,1998.0,440.0,103.6,0.0
498281,2377.0,440.0,103.6,0.0
498282,2326.0,440.0,103.6,0.0
498282,2296.0,440.0,103.6,0.0
498295,2003.0,440.0,103.6,0.0
498295,2101.0,440.0,103.6,0.0
498295,2137.0,440.0,103.6,0.0
498312,1766.0,440.0,103.6,0.0
498313,1837.0,440.0,103.6,0.0
498313,1858.0,440.0,103.6,0.0
498326,2010.0,440.0,103.6,0.0
498326,1996.0,440.0,103.6,0.0
498326,1996.0,440.0,103.6,0.0
498340,2568.0,439.0,103.6,0.0
498340,2550.0,439.0,103.6,0.0
498341,2570.0,439.0,103.6,0.0
498357,1933.0,439.0,103.6,0.0
498357,1958.0,439.0,103.6,0.0
498357,1925.0,439.0,103.6,0.0
498371,1916.0,438.0,103.6,0.0
498371,1929.0,438.0,103.6,0.0
498372,1970.0,438.0,103.6,0.0
498389,1923.0,438.0,103.6,0.0
498389,1878.0,438.0,103.6,0.0
498389,1844.0,438.0,103.6,0.0
498402,2065.0,438.0,103.6,0.0
498403,2082.0,438.0,103.6,0.0
498403,2081.0,438.0,103.6,0.0
498415,1934.0,438.0,103.6,0.0
498416,1937.0,438.0,103.6,0.0
498416,1973.0,438.0,103.6,0.0
498433,1902.0,437.0,103.6,0.0
498434,1966.0,437.0,103.6,0.0
498434,1954.0,437.0,103.6,0.0
498446,1959.0,437.0,103.6,0.0
498447,1953.0,437.0,103.6,0.0
498447,1974.0,437.0,103.6,0.0
498461,2077.0,437.0,103.6,0.0
498461,2050.0,437.0,103.6,0.0
498461,2029.0,437.0,103.6,0.0
498479,2005.0,437.0,103.6,0.0
498479,2046.0,437.0,103.6,0.0
498479,2029.0,437.0,103.6,0.0
498492,1894.0,437.0,103.6,0.0
498492,1863.0,437.0,103.6,0.0
498493,1876.0,437.0,103.6,0.0
498510,1850.0,437.0,103.6,0.0
498510,1864.0,437.0,103.6,0.0
498510,1841.0,437.0,103.6,0.0
498523,2000.0,437.0,103.6,0.0
498524,2009.0,437.0,103.6,0.0
498524,2037.0,437.0,103.6,0.0
498538,2385.0,436.0,111.5,0.0
498538,2375.0,436.0,111.5,0.0
498538,2371.0,436.0,111.5,0.0
498554,1815.0,436.0,111.5,0.0
498555,1863.0,436.0,111.5,0.0
498555,1848.0,436.0,111.5,0.0
498568,1908.0,437.0,111.5,0.0
498569,1919.0,437.0,111.5,0.0
498569,1960.0,437.0,111.5,0.0
498582,2051.0,437.0,111.5,0.0
498582,2022.0,437.0,111.5,0.0
498582,1981.0,437.0,111.5,0.0
498599,2075.0,437.0,111.5,0.0
498600,2108.0,437.0,111.5,0.0
498600,2141.0,437.0,111.5,0.0
498612,1897.0,437.0,111.5,0.0
498613,1843.0,437.0,111.5,0.0
498613,1833.0,437.0,111.5,0.0
498630,1917.0,437.0,111.5,0.0
498630,2058.0,437.0,111.5,0.0
498631,1938.0,437.0,111.5,0.0
498643,2301.0,437.0,111.5,0.0
498644,2239.0,437.0,111.5,0.0
498644,2252.0,437.0,111.5,0.0
498657,2045.0,436.0,111.5,0.0
498658,2051.0,436.0,111.5,0.0
498658,2025.0,436.0,111.5,0.0
498674,1978.0,436.0,111.5,0.0
498674,2040.0,436.0,111.5,0.0
498675,2100.0,436.0,111.5,0.0
498688,1962.0,437.0,111.5,0.0
498688,1905.0,437.0,111.5,0.0
498689,1885.0,437.0,111.5,0.0
498689,1892.0,437.0,111.5,0.0
498701,2267.0,437.0,111.5,0.0
498702,2249.0,437.0,111.5,0.0
498702,2208.0,437.0,111.5,0.0
498719,2186.0,437.0,111.5,0.0
498720,2200.0,437.0,111.5,0.0
498720,2202.0,437.0,111.5,0.0
498720,2213.0,437.0,111.5,0.0
498733,1890.0,437.0,111.5,0.0
498733,1906.0,437.0,111.5,0.0
498733,1931.0,437.0,111.5,0.0
498750,1888.0,437.0,111.5,0.0
498751,1871.0,437.0,111.5,0.0
498751,1858.0,437.0,111.5,0.0
498751,1859.0,437.0,111.5,0.0
498764,2098.0,437.0,111.5,0.0
498764,2091.0,437.0,111.5,0.0
498764,2088.0,437.0,111.5,0.0
498778,2327.0,436.0,111.5,0.0
498778,2321.0,436.0,111.5,0.0
498779,2334.0,436.0,111.5,0.0
498779,2382.0,436.0,111.5,0.0
498794,2042.0,436.0,111.5,0.0
498795,2096.0,436.0,111.5,0.0
498795,2111.0,436.0,111.5,0.0
498795,2097.0,436.0,111.5,0.0
498809,1927.0,436.0,111.5,0.0
498809,1921.0,436.0,111.5,0.0
498809,1907.0,436.0,111.5,0.0
498826,2019.0,436.0,111.5,0.0
498827,1995.0,436.0,111.5,0.0
498827,2021.0,436.0,111.5,0.0
498827,2035.0,436.0,111.5,0.0
498840,2165.0,436.0,111.5,0.0
498840,2135.0,436.0,111.5,0.0
498840,2130.0,436.0,111.5,0.0
498853,1878.0,436.0,111.5,0.0
498853,1965.0,436.0,111.5,0.0
498853,1938.0,436.0,111.5,0.0
498854,1945.0,436.0,111.5,0.0
498872,1845.0,436.0,111.5,0.0
498872,1905.0,436.0,111.5,0.0
498872,1918.0,436.0,111.5,0.0
498872,1897.0,436.0,111.5,0.0
498886,1986.0,435.0,111.5,0.0
498886,1981.0,435.0,111.5,0.0
498887,2002.0,435.0,111.5,0.0
498899,2159.0,435.0,111.5,0.0
498900,2125.0,435.0,111.5,0.0
498900,2096.0,435.0,111.5,0.0
498900,2109.0,435.0,111.5,0.0
498917,1974.0,435.0,111.5,0.0
498917,2005.0,435.0,111.5,0.0
498918,1975.0,435.0,111.5,0.0
498918,1954.0,435.0,111.5,0.0
498930,1934.0,435.0,111.5,0.0
498931,1974.0,435.0,111.5,0.0
498931,1973.0,435.0,111.5,0.0
498948,1932.0,435.0,111.5,0.0
498948,1886.0,435.0,111.5,0.0
498948,1887.0,435.0,111.5,0.0
498949,1909.0,435.0,111.5,0.0
498961,2413.0,434.0,114.9,0.0
498962,2375.0,434.0,114.9,0.0
498962,2357.0,434.0,114.9,0.0
498974,2003.0,434.0,114.9,0.0
498975,2094.0,434.0,114.9,0.0
498975,2081.0,434.0,114.9,0.0
498975,2068.0,434.0,114.9,0.0
498993,1797.0,434.0,114.9,0.0
498993,1878.0,434.0,114.9,0.0
498994,1762.0,434.0,114.9,0.0
498994,1925.0,434.0,114.9,0.0
499007,1964.0,433.0,114.9,0.0
499008,1956.0,433.0,114.9,0.0
499008,2000.0,433.0,114.9,0.0
499021,2213.0,433.0,114.9,0.0
499021,2162.0,433.0,114.9,0.0
499021,2139.0,433.0,114.9,0.0
499021,2164.0,433.0,114.9,0.0
499038,2077.0,433.0,114.9,0.0
499039,2106.0,433.0,114.9,0.0
499039,2070.0,433.0,114.9,0.0
499039,2043.0,433.0,114.9,0.0
499052,1900.0,432.0,114.9,0.0
499052,1937.0,432.0,114.9,0.0
499052,1932.0,432.0,114.9,0.0
499066,2015.0,432.0,114.9,0.0
499066,1975.0,432.0,114.9,0.0
499066,1986.0,432.0,114.9,0.0
499067,2024.0,432.0,114.9,0.0
499082,1941.0,432.0,114.9,0.0
499083,1911.0,432.0,114.9,0.0
499083,1886.0,432.0,114.9,0.0
499083,1915.0,432.0,114.9,0.0
499097,2608.0,432.0,114.9,0.0
499097,2577.0,432.0,114.9,0.0
499097,2626.0,432.0,114.9,0.0
499113,1682.0,432.0,114.9,0.0
499114,1744.0,432.0,114.9,0.0
499114,1602.0,432.0,114.9,0.0
499114,1715.0,432.0,114.9,0.0
499128,2031.0,431.0,114.9,0.0
499128,2047.0,431.0,114.9,0.0
499128,2080.0,431.0,114.9,0.0
499141,2039.0,431.0,114.9,0.0
499141,2005.0,431.0,114.9,0.0
499141,1981.0,431.0,114.9,0.0
499142,2000.0,431.0,114.9,0.0
499159,2259.0,430.0,114.9,0.0
499159,2246.0,430.0,114.9,0.0
499160,2213.0,430.0,114.9,0.0
499160,2198.0,430.0,114.9,0.0
499173,1896.0,430.0,114.9,0.0
499173,1909.0,430.0,114.9,0.0
499173,1900.0,430.0,114.9,0.0
499187,1978.0,430.0,114.9,0.0
499187,1961.0,430.0,114.9,0.0
499187,1990.0,430.0,114.9,0.0
499188,2006.0,430.0,114.9,0.0
499203,2097.0,429.0,114.9,0.0
499204,2053.0,429.0,114.9,0.0
499204,2020.0,429.0,114.9,0.0
499204,2065.0,429.0,114.9,0.0
499218,2220.0,429.0,114.9,0.0
499218,2210.0,429.0,114.9,0.0
499218,2188.0,429.0,114.9,0.0
499235,1873.0,429.0,114.9,0.0
499236,1904.0,429.0,114.9,0.0
499236,1913.0,429.0,114.9,0.0
499236,1891.0,429.0,114.9,0.0
499249,1971.0,428.0,114.9,0.0
499249,2008.0,428.0,114.9,0.0
499249,2007.0,428.0,114.9,0.0
499262,2216.0,428.0,114.9,0.0
499262,2162.0,428.0,114.9,0.0
499262,2135.0,428.0,114.9,0.0
499279,1984.0,429.0,114.9,0.0
499280,2016.0,429.0,114.9,0.0
499280,2012.0,429.0,114.9,0.0
499280,1985.0,429.0,114.9,0.0
499292,1776.0,428.0,114.9,0.0
499293,1978.0,428.0,114.9,0.0
499293,2006.0,428.0,114.9,0.0
499307,1996.0,428.0,114.9,0.0
499307,1969.0,428.0,114.9,0.0
499307,1947.0,428.0,114.9,0.0
499308,1960.0,428.0,114.9,0.0
499324,2102.0,428.0,114.9,0.0
499325,2087.0,428.0,114.9,0.0
499325,2055.0,428.0,114.9,0.0
499326,2021.0,428.0,114.9,0.0
499338,2004.0,428.0,114.9,0.0
499339,2023.0,428.0,114.9,0.0
499339,2013.0,428.0,114.9,0.0
499356,2175.0,427.0,114.9,0.0
499356,2193.0,427.0,114.9,0.0
499357,2221.0,427.0,114.9,0.0
499357,2242.0,427.0,136.5,0.0
499369,1913.0,427.0,136.5,0.0
499370,1894.0,427.0,136.5,0.0
499370,1885.0,427.0,136.5,0.0
499382,2128.0,427.0,136.5,0.0
499383,2116.0,427.0,136.5,0.0
499383,2136.0,427.0,136.5,0.0
499400,2118.0,427.0,136.5,0.0
499400,2106.0,427.0,136.5,0.0
499400,2105.0,427.0,136.5,0.0
499401,2102.0,427.0,136.5,0.0
499413,1951.0,427.0,136.5,0.0
499414,1928.0,427.0,136.5,0.0
499414,1813.0,427.0,136.5,0.0
499430,1947.0,427.0,136.5,0.0
499431,1953.0,427.0,136.5,0.0
499431,1963.0,427.0,136.5,0.0
499431,1971.0,427.0,136.5,0.0
499445,2037.0,426.0,136.5,0.0
499445,2013.0,426.0,136.5,0.0
499445,2009.0,426.0,136.5,0.0
499458,2226.0,426.0,136.5,0.0
499458,2238.0,426.0,136.5,0.0
499459,2237.0,426.0,136.5,0.0
499459,2231.0,426.0,136.5,0.0
499477,2054.0,426.0,136.5,0.0
499477,2080.0,426.0,136.5,0.0
499477,2083.0,426.0,136.5,0.0
499477,2068.0,426.0,136.5,0.0
499490,1936.0,426.0,136.5,0.0
499491,1937.0,426.0,136.5,0.0
499491,1930.0,426.0,136.5,0.0
499504,2051.0,426.0,136.5,0.0
499505,2040.0,426.0,136.5,0.0
499505,2032.0,426.0,136.5,0.0
499505,2054.0,426.0,136.5,0.0
499521,2335.0,426.0,136.5,0.0
499521,2294.0,426.0,136.5,0.0
499521,2284.0,426.0,136.5,0.0
499522,2298.0,426.0,136.5,0.0
499535,1810.0,427.0,136.5,0.0
499535,1815.0,427.0,136.5,0.0
499536,1793.0,427.0,136.5,0.0
499551,1980.0,427.0,136.5,0.0
499552,1996.0,427.0,136.5,0.0
499552,2030.0,427.0,136.5,0.0
499552,2034.0,427.0,136.5,0.0
499566,2047.0,426.0,136.5,0.0
499566,1985.0,426.0,136.5,0.0
499566,1989.0,426.0,136.5,0.0
499579,2187.0,426.0,136.5,0.0
499579,2214.0,426.0,136.5,0.0
499579,2179.0,426.0,136.5,0.0
499580,2188.0,426.0,136.5,0.0
499597,1849.0,426.0,136.5,0.0
499598,1871.0,426.0,136.5,0.0
499598,1845.0,426.0,136.5,0.0
499598,1836.0,426.0,136.5,0.0
499611,1991.0,426.0,136.5,0.0
499611,2008.0,426.0,136.5,0.0
499611,2017.0,426.0,136.5,0.0
499625,2020.0,427.0,136.5,0.0
499625,1997.0,427.0,136.5,0.0
499625,1978.0,427.0,136.5,0.0
499626,1981.0,427.0,136.5,0.0
499642,3331.0,427.0,136.5,0.0
499643,3184.0,427.0,136.5,0.0
499643,3138.0,427.0,136.5,0.0
499643,3110.0,427.0,136.5,0.0
499656,1464.0,426.0,136.5,0.0
499657,1530.0,426.0,136.5,0.0
499657,1493.0,426.0,136.5,0.0
499674,2054.0,427.0,136.5,0.0
499674,2108.0,427.0,136.5,0.0
499675,2200.0,427.0,136.5,0.0
499675,2215.0,427.0,136.5,0.0
499687,1917.0,427.0,136.5,0.0
499688,1857.0,427.0,136.5,0.0
499688,1872.0,427.0,136.5,0.0
499701,2139.0,427.0,136.5,0.0
499701,2163.0,427.0,136.5,0.0
499701,2108.0,427.0,136.5,0.0
499701,2093.0,427.0,136.5,0.0
499719,2082.0,427.0,136.5,0.0
499720,2118.0,427.0,136.5,0.0
499720,2128.0,427.0,136.5,0.0
499720,2071.0,427.0,136.5,0.0
499733,1890.0,427.0,136.5,0.0
499734,1932.0,427.0,136.5,0.0
499734,1970.0,427.0,136.5,0.0
499747,2025.0,427.0,136.5,0.0
499747,1979.0,427.0,136.5,0.0
499747,1956.0,427.0,136.5,0.0
499747,1970.0,427.0,136.5,0.0
499764,2046.0,427.0,136.5,0.0
499765,2039.0,427.0,136.5,0.0
499765,1999.0,427.0,136.5,0.0
499765,1968.0,427.0,136.5,0.0
499778,2107.0,427.0,136.5,0.0
499778,2143.0,427.0,136.5,0.0
499778,2142.0,427.0,136.5,0.0
499791,1918.0,427.0,136.5,0.0
499792,2011.0,427.0,136.5,0.0
499792,1900.0,427.0,136.5,0.0
499792,1926.0,427.0,136.5,0.0
499809,1958.0,427.0,136.5,0.0
499809,1930.0,427.0,136.5,0.0
499809,1899.0,427.0,136.5,0.0
499810,1918.0,427.0,136.5,0.0
499823,2162.0,428.0,136.5,0.0
499824,2149.0,428.0,136.5,0.0
499824,2142.0,428.0,136.5,0.0
499840,1895.0,428.0,136.5,0.0
499840,1896.0,428.0,136.5,0.0
499840,1908.0,428.0,136.5,0.0
499841,1905.0,428.0,136.5,0.0
499854,1970.0,428.0,136.5,0.0
499854,1955.0,428.0,136.5,0.0
499855,1967.0,428.0,136.5,0.0
499867,1981.0,428.0,136.5,0.0
499868,1970.0,428.0,136.5,0.0
499868,1960.0,428.0,136.5,0.0
499868,1961.0,428.0,136.5,0.0
499885,2079.0,429.0,136.5,0.0
499885,2065.0,429.0,136.5,0.0
499885,2066.0,429.0,136.5,0.0
499885,2039.0,429.0,136.5,0.0
499898,2071.0,429.0,136.5,0.0
499899,2102.0,429.0,136.5,0.0
499899,2082.0,429.0,136.5,0.0
499916,2245.0,429.0,136.5,0.0
499916,2261.0,429.0,136.5,0.0
499917,2270.0,429.0,136.5,0.0
499917,2277.0,429.0,136.5,0.0
499929,1913.0,429.0,136.5,0.0
499930,1888.0,429.0,136.5,0.0
499930,1877.0,429.0,136.5,0.0
499944,2075.0,429.0,136.5,0.0
499944,2081.0,429.0,136.5,0.0
499944,2100.0,429.0,136.5,0.0
499944,2092.0,429.0,136.5,0.0
499961,2104.0,430.0,136.5,0.0
499962,2082.0,430.0,136.5,0.0
499962,2109.0,430.0,136.5,0.0
499962,2118.0,430.0,136.5,0.0
499976,2213.0,430.0,136.5,0.0
499976,2243.0,430.0,136.5,0.0
499976,2231.0,430.0,136.5,0.0
499989,1920.0,430.0,136.5,0.0
499989,1919.0,430.0,136.5,0.0
499990,1911.0,430.0,136.5,0.0
499990,1872.0,430.0,136.5,0.0
500006,2019.0,430.0,136.5,0.0
500007,2030.0,430.0,136.5,0.0
500007,2031.0,430.0,136.5,0.0
500007,2044.0,430.0,136.5,0.0
500020,2313.0,430.0,136.5,0.0
500021,2279.0,430.0,136.5,0.0
500021,2300.0,430.0,136.5,0.0
500034,1965.0,430.0,136.5,0.0
500035,1996.0,430.0,136.5,0.0
500035,1973.0,430.0,136.5,0.0
500035,1957.0,430.0,136.5,0.0
500051,1938.0,430.0,136.5,0.0
500051,1959.0,430.0,136.5,0.0
500052,1949.0,430.0,136.5,0.0
500052,1913.0,430.0,136.5,0.0
500065,1980.0,430.0,136.5,0.0
500066,2002.0,430.0,136.5,0.0
500066,2044.0,430.0,136.5,0.0
500083,2198.0,430.0,136.5,0.0
500083,2124.0,430.0,136.5,0.0
500084,2120.0,430.0,136.5,0.0
500084,2117.0,430.0,136.5,0.0
500097,2205.0,430.0,136.5,0.0
500097,2231.0,430.0,136.5,0.0
500097,2188.0,430.0,136.5,0.0
500110,1890.0,431.0,136.5,0.0
500110,1907.0,431.0,136.5,0.0
500110,1925.0,431.0,136.5,0.0
500111,1835.0,431.0,136.5,0.0
500127,1982.0,431.0,136.5,0.0
500128,1978.0,431.0,136.5,0.0
500128,2006.0,431.0,136.5,0.0
500128,2029.0,431.0,136.5,0.0
500141,2215.0,431.0,136.5,0.0
500141,2162.0,431.0,136.5,0.0
500141,2139.0,431.0,136.5,0.0
500155,1877.0,431.0,136.5,0.0
500155,1895.0,431.0,136.5,0.0
500155,1852.0,431.0,136.5,0.0
500156,1815.0,431.0,136.5,0.0
500172,1972.0,431.0,136.5,0.0
500173,2013.0,431.0,136.5,0.0
500173,2047.0,431.0,136.5,0.0
500173,2045.0,431.0,136.5,0.0
500186,1970.0,431.0,136.5,0.0
500186,1956.0,431.0,136.5,0.0
500186,1988.0,431.0,136.5,0.0
500203,2214.0,431.0,136.5,0.0
500204,2167.0,431.0,136.5,0.0
500204,2123.0,431.0,136.5,0.0
500204,2115.0,431.0,136.5,0.0
500217,1965.0,431.0,136.5,0.0
500218,2009.0,431.0,136.5,0.0
500218,1995.0,431.0,136.5,0.0
500231,1930.0,431.0,136.5,0.0
500232,1937.0,431.0,136.5,0.0
500232,1961.0,431.0,136.5,0.0
500232,1989.0,431.0,136.5,0.0
500248,1980.0,431.0,136.5,0.0
500248,1951.0,431.0,136.5,0.0
500248,1938.0,431.0,136.5,0.0
500249,1959.0,431.0,136.5,0.0
500262,2045.0,431.0,136.5,0.0
500263,2025.0,431.0,136.5,0.0
500263,1997.0,431.0,136.5,0.0
500279,2132.0,431.0,136.5,0.0
500279,2153.0,431.0,136.5,0.0
500279,2162.0,431.0,136.5,0.0
500280,2146.0,431.0,136.5,0.0
500293,1926.0,431.0,136.5,0.0
500294,1970.0,431.0,136.5,0.0
500294,2004.0,431.0,136.5,0.0
500307,2034.0,432.0,136.5,0.0
500307,2013.0,432.0,136.5,0.0
500307,1997.0,432.0,136.5,0.0
500307,1981.0,432.0,136.5,0.0
500325,2056.0,432.0,136.5,0.0
500326,2052.0,432.0,136.5,0.0
500326,2033.0,432.0,136.5,0.0
500326,2018.0,432.0,136.5,0.0
500339,2169.0,432.0,136.5,0.0
500339,2180.0,432.0,136.5,0.0
500339,2195.0,432.0,136.5,0.0
500353,1882.0,431.0,136.5,0.0
500353,1905.0,431.0,136.5,0.0
500354,1931.0,431.0,136.5,0.0
500354,1940.0,431.0,136.5,0.0
500369,1967.0,432.0,136.5,0.0
500370,1944.0,432.0,136.5,0.0
500370,1934.0,432.0,136.5,0.0
500370,1917.0,432.0,136.5,0.0
500384,2050.0,432.0,136.5,0.0
500384,2054.0,432.0,136.5,0.0
500385,2064.0,432.0,136.5,0.0
500401,2196.0,432.0,136.5,0.0
500402,2168.0,432.0,136.5,0.0
500402,2169.0,432.0,136.5,0.0
500402,2175.0,432.0,136.5,0.0
500415,2055.0,432.0,136.5,0.0
500415,2087.0,432.0,136.5,0.0
500415,2081.0,432.0,136.5,0.0
500428,1975.0,432.0,136.5,0.0
500428,1929.0,432.0,136.5,0.0
500429,1973.0,432.0,136.5,0.0
500429,1955.0,432.0,136.5,0.0
500447,2030.0,432.0,136.5,0.0
500447,2001.0,432.0,136.5,0.0
500447,2022.0,432.0,136.5,0.0
500447,2028.0,432.0,136.5,0.0
500461,2129.0,432.0,136.5,0.0
500461,2107.0,432.0,136.5,0.0
500462,2115.0,432.0,136.5,0.0
500474,2146.0,433.0,136.5,0.0
500475,2221.0,433.0,136.5,0.0
500475,2234.0,433.0,136.5,0.0
500475,2235.0,433.0,136.5,0.0
500492,1786.0,433.0,136.5,0.0
500492,1796.0,433.0,136.5,0.0
500493,1797.0,433.0,136.5,0.0
500493,1762.0,433.0,136.5,0.0
500505,2027.0,433.0,136.5,0.0
500506,2037.0,433.0,136.5,0.0
500506,2080.0,433.0,136.5,0.0
500519,2074.0,434.0,136.5,0.0
500519,2048.0,434.0,136.5,0.0
500519,2026.0,434.0,136.5,0.0
500520,2049.0,434.0,136.5,0.0
500536,2178.0,434.0,136.5,0.0
500537,2186.0,434.0,136.5,0.0
500537,2168.0,434.0,136.5,0.0
500537,2166.0,434.0,136.5,0.0
500551,1911.0,435.0,136.5,0.0
500551,1983.0,435.0,136.5,0.0
500551,1916.0,435.0,136.5,0.0
500567,1997.0,435.0,136.5,0.0
500568,1978.0,435.0,136.5,0.0
500568,2000.0,435.0,136.5,0.0
500568,2022.0,435.0,136.5,0.0
500581,2213.0,436.0,136.5,0.0
500582,2178.0,436.0,136.5,0.0
500582,2163.0,436.0,136.5,0.0
500595,1966.0,436.0,136.5,0.0
500595,2025.0,436.0,136.5,0.0
500595,2015.0,436.0,136.5,0.0
500595,2001.0,436.0,136.5,0.0
500612,1899.0,437.0,136.5,0.0
500613,1940.0,437.0,136.5,0.0
500613,1962.0,437.0,136.5,0.0
500613,1948.0,437.0,136.5,0.0
500626,1987.0,437.0,136.5,0.0
500626,2015.0,437.0,136.5,0.0
500626,2010.0,437.0,136.5,0.0
500640,2290.0,437.0,136.5,0.0
500640,2259.0,437.0,136.5,0.0
500640,2225.0,437.0,136.5,0.0
500641,2253.0,437.0,136.5,0.0
500656,2043.0,438.0,136.5,0.0
500657,2089.0,438.0,136.5,0.0
500657,2061.0,438.0,136.5,0.0
500657,2028.0,438.0,136.5,0.0
500671,1934.0,438.0,136.5,0.0
500671,1965.0,438.0,136.5,0.0
500671,1966.0,438.0,136.5,0.0
500687,1991.0,438.0,136.5,0.0
500688,1960.0,438.0,136.5,0.0
500688,1978.0,438.0,136.5,0.0
500688,2009.0,438.0,136.5,0.0
500702,2166.0,438.0,136.5,0.0
500702,2142.0,438.0,136.5,0.0
500702,2108.0,438.0,136.5,0.0
500715,2043.0,439.0,136.5,0.0
500715,2108.0,439.0,136.5,0.0
500715,2114.0,439.0,136.5,0.0
500715,2107.0,439.0,136.5,0.0
500732,1874.0,439.0,136.5,0.0
500733,1888.0,439.0,136.5,0.0
500733,1923.0,439.0,136.5,0.0
500733,1925.0,439.0,136.5,0.0
500746,2042.0,439.0,136.5,0.0
500746,2016.0,439.0,136.5,0.0
500746,2033.0,439.0,136.5,0.0
500760,2212.0,439.0,136.5,0.0
500760,2190.0,439.0,136.5,0.0
500761,2160.0,439.0,136.5,0.0
500761,2149.0,439.0,136.5,0.0
500776,2076.0,439.0,136.5,0.0
500777,2092.0,439.0,136.5,0.0
500777,2077.0,439.0,136.5,0.0
500777,2056.0,439.0,136.5,0.0
500791,1925.0,440.0,136.5,0.0
500791,1945.0,440.0,136.5,0.0
500791,1957.0,440.0,136.5,0.0
500807,1995.0,440.0,136.5,0.0
500808,1967.0,440.0,136.5,0.0
500808,1975.0,440.0,136.5,0.0
500808,1993.0,440.0,136.5,0.0
500822,2155.0,441.0,136.5,0.0
500822,2135.0,441.0,136.5,0.0
500822,2108.0,441.0,136.5,0.0
500835,2069.0,441.0,136.5,0.0
500835,2150.0,441.0,136.5,0.0
500835,2165.0,441.0,136.5,0.0
500836,2153.0,441.0,136.5,0.0
500852,1842.0,441.0,136.5,0.0
500853,1886.0,441.0,136.5,0.0
500854,1926.0,441.0,136.5,0.0
500854,1944.0,441.0,136.5,0.0
500866,2044.0,441.0,136.5,0.0
500867,2014.0,441.0,136.5,0.0
500867,2028.0,441.0,136.5,0.0
500884,2076.0,441.0,136.5,0.0
500884,2048.0,441.0,136.5,0.0
500884,2041.0,441.0,136.5,0.0
500885,2044.0,441.0,136.5,0.0
500897,2098.0,441.0,136.5,0.0
500898,2128.0,441.0,136.5,0.0
500898,2106.0,441.0,136.5,0.0
500911,1923.0,441.0,136.5,0.0
500912,1920.0,441.0,136.5,0.0
500912,1929.0,441.0,136.5,0.0
500912,1939.0,441.0,136.5,0.0
500930,2024.0,441.0,136.5,0.0
500930,2029.0,441.0,136.5,0.0
500930,2039.0,441.0,136.5,0.0
500931,2046.0,441.0,136.5,0.0
500943,2067.0,441.0,136.5,0.0
500944,2050.0,441.0,136.5,0.0
500944,2039.0,441.0,136.5,0.0
500956,2078.0,441.0,136.5,0.0
500957,2102.0,441.0,136.5,0.0
500957,2112.0,441.0,136.5,0.0
500974,1926.0,440.0,136.5,0.0
500974,1891.0,440.0,136.5,0.0
500974,1886.0,440.0,136.5,0.0
500974,1883.0,440.0,136.5,0.0
500987,2005.0,440.0,136.5,0.0
500987,1996.0,440.0,136.5,0.0
500988,2000.0,440.0,136.5,0.0
501001,2170.0,440.0,136.5,0.0
501001,2171.0,440.0,136.5,0.0
501002,2154.0,440.0,136.5,0.0
501002,2150.0,440.0,136.5,0.0
501017,2049.0,440.0,136.5,0.0
501018,2043.0,440.0,136.5,0.0
501018,2049.0,440.0,136.5,0.0
501018,2048.0,440.0,136.5,0.0
501032,1885.0,440.0,136.5,0.0
501032,2047.0,440.0,136.5,0.0
501032,1932.0,440.0,136.5,0.0
501049,1970.0,440.0,136.5,0.0
501050,1945.0,440.0,136.5,0.0
501050,1953.0,440.0,136.5,0.0
501050,1950.0,440.0,136.5,0.0
501063,2180.0,440.0,136.5,0.0
501063,2154.0,440.0,136.5,0.0
501063,2152.0,440.0,136.5,0.0
501076,2039.0,440.0,136.5,0.0
501076,2045.0,440.0,136.5,0.0
501076,2045.0,440.0,136.5,0.0
501077,2045.0,440.0,136.5,0.0
501093,1921.0,439.0,136.5,0.0
501094,1943.0,439.0,136.5,0.0
501094,1950.0,439.0,136.5,0.0
501094,1947.0,439.0,136.5,0.0
501106,1992.0,439.0,136.5,0.0
501107,2003.0,439.0,136.5,0.0
501107,2016.0,439.0,136.5,0.0
501121,2270.0,440.0,136.5,0.0
501121,2236.0,440.0,136.5,0.0
501121,2221.0,440.0,136.5,0.0
501121,2249.0,440.0,136.5,0.0
501137,1936.0,440.0,136.5,0.0
501138,1942.0,440.0,136.5,0.0
501138,1904.0,440.0,136.5,0.0
501138,1908.0,440.0,136.5,0.0
501151,1982.0,439.0,136.5,0.0
501152,2003.0,439.0,136.5,0.0
501152,1991.0,439.0,136.5,0.0
501169,1860.0,439.0,136.5,0.0
501169,1783.0,439.0,136.5,0.0
501170,1815.0,439.0,136.5,0.0
501170,1817.0,439.0,136.5,0.0
501182,2173.0,439.0,136.5,0.0
501183,2148.0,439.0,136.5,0.0
501183,2174.0,439.0,136.5,0.0
501195,2064.0,439.0,136.5,0.0
501196,2099.0,439.0,136.5,0.0
501196,2089.0,439.0,136.5,0.0
501213,1865.0,439.0,136.5,0.0
501213,1889.0,439.0,136.5,0.0
501213,1935.0,439.0,136.5,0.0
501213,1944.0,439.0,136.5,0.0
501226,2070.0,439.0,136.5,0.0
501226,2019.0,439.0,136.5,0.0
501227,2023.0,439.0,136.5,0.0
501240,1991.0,439.0,136.5,0.0
501241,1995.0,439.0,136.5,0.0
501241,1977.0,439.0,136.5,0.0
501241,1966.0,439.0,136.5,0.0
501258,2363.0,439.0,136.5,0.0
501258,2382.0,439.0,136.5,0.0
501258,2392.0,439.0,136.5,0.0
501259,2396.0,439.0,136.5,0.0
501272,1809.0,438.0,136.5,0.0
501272,1814.0,438.0,136.5,0.0
501273,1800.0,438.0,136.5,0.0
501290,1976.0,438.0,136.5,0.0
501290,1960.0,438.0,136.5,0.0
501290,1977.0,438.0,136.5,0.0
501291,1971.0,438.0,136.5,0.0
501303,2025.0,438.0,136.5,0.0
501304,2005.0,438.0,136.5,0.0
501304,2009.0,438.0,136.5,0.0
501316,2273.0,438.0,136.5,0.0
501317,2287.0,438.0,136.5,0.0
501317,2313.0,438.0,136.5,0.0
501317,2325.0,438.0,136.5,0.0
501334,2142.0,438.0,136.5,0.0
501335,2434.0,438.0,136.5,0.0
501335,2479.0,438.0,136.5,0.0
501335,2647.0,438.0,136.5,0.0
501349,1840.0,438.0,136.5,0.0
501349,1736.0,438.0,136.5,0.0
501350,1668.0,438.0,136.5,0.0
501365,2247.0,438.0,136.5,0.0
501366,2249.0,438.0,136.5,0.0
501366,2276.0,438.0,136.5,0.0
501366,2335.0,438.0,136.5,0.0
501380,2066.0,438.0,136.5,0.0
501380,2016.0,438.0,136.5,0.0
501380,2010.0,438.0,136.5,0.0
501393,1947.0,438.0,136.5,0.0
501393,2055.0,438.0,136.5,0.0
501394,2007.0,438.0,136.5,0.0
501394,1966.0,438.0,136.5,0.0
501412,1899.0,437.0,136.5,0.0
501412,1922.0,437.0,136.5,0.0
501413,2016.0,437.0,136.5,0.0
501413,2162.0,437.0,136.5,0.0
501426,2371.0,437.0,136.5,0.0
501426,2213.0,437.0,136.5,0.0
501426,2191.0,437.0,136.5,0.0
501440,2057.0,436.0,136.5,0.0
501440,2096.0,436.0,136.5,0.0
501441,2075.0,436.0,136.5,0.0
501441,2108.0,436.0,136.5,0.0
501457,2134.0,436.0,136.5,0.0
501458,2158.0,436.0,136.5,0.0
501458,2129.0,436.0,136.5,0.0
501458,2075.0,436.0,136.5,0.0
501471,1865.0,436.0,136.5,0.0
501471,1931.0,436.0,136.5,0.0
501472,1944.0,436.0,136.5,0.0
501484,2109.0,436.0,136.5,0.0
501485,2035.0,436.0,136.5,0.0
501485,2045.0,436.0,136.5,0.0
501485,2099.0,436.0,136.5,0.0
501502,2452.0,437.0,136.5,0.0
501502,2380.0,437.0,136.5,0.0
501503,2308.0,437.0,136.5,0.0
501503,2357.0,437.0,136.5,0.0
501515,1995.0,437.0,136.5,0.0
501516,2046.0,437.0,136.5,0.0
501516,2014.0,437.0,136.5,0.0
501533,1877.0,437.0,136.5,0.0
501534,1869.0,437.0,136.5,0.0
501534,1928.0,437.0,136.5,0.0
501534,1779.0,437.0,136.5,0.0
501548,1985.0,437.0,136.5,0.0
501548,1940.0,437.0,136.5,0.0
501549,1782.0,437.0,136.5,0.0
501561,2311.0,437.0,141.5,0.0
501562,2290.0,437.0,141.5,0.0
501562,2238.0,437.0,141.5,0.0
501562,2213.0,437.0,141.5,0.0
501579,2129.0,437.0,141.5,0.0
501580,2174.0,437.0,141.5,0.0
501580,2167.0,437.0,141.5,0.0
501580,2129.0,437.0,141.5,0.0
501592,1884.0,437.0,141.5,0.0
501593,1887.0,437.0,141.5,0.0
501593,1918.0,437.0,141.5,0.0
501607,2036.0,436.0,141.5,0.0
501607,1979.0,436.0,141.5,0.0
501607,1980.0,436.0,141.5,0.0
501607,2012.0,436.0,141.5,0.0
501623,2106.0,436.0,141.5,0.0
501624,2081.0,436.0,141.5,0.0
501624,2039.0,436.0,141.5,0.0
501624,2039.0,436.0,141.5,0.0
501638,2258.0,436.0,141.5,0.0
501638,2285.0,436.0,141.5,0.0
501638,2276.0,436.0,141.5,0.0
501654,1855.0,436.0,141.5,0.0
501655,1852.0,436.0,141.5,0.0
501655,1899.0,436.0,141.5,0.0
501655,1871.0,436.0,141.5,0.0
501669,2005.0,436.0,141.5,0.0
501669,1999.0,436.0,141.5,0.0
501669,2009.0,436.0,141.5,0.0
501682,2073.0,436.0,141.5,0.0
501682,2077.0,436.0,141.5,0.0
501682,2051.0,436.0,141.5,0.0
501683,2050.0,436.0,141.5,0.0
501700,2143.0,436.0,141.5,0.0
501700,2142.0,436.0,141.5,0.0
501700,2146.0,436.0,141.5,0.0
501701,2138.0,436.0,141.5,0.0
501713,1919.0,436.0,141.5,0.0
501714,1936.0,436.0,141.5,0.0
501714,1932.0,436.0,141.5,0.0
501731,1939.0,436.0,141.5,0.0
501732,1938.0,436.0,141.5,0.0
501732,1927.0,436.0,141.5,0.0
501732,1939.0,436.0,141.5,0.0
501745,1982.0,436.0,141.5,0.0
501745,1984.0,436.0,141.5,0.0
501745,1989.0,436.0,141.5,0.0
501759,2088.0,436.0,141.5,0.0
501759,2090.0,436.0,141.5,0.0
501759,2095.0,436.0,141.5,0.0
501759,2104.0,436.0,141.5,0.0
501777,2091.0,436.0,141.5,0.0
501778,2111.0,436.0,141.5,0.0
501778,2107.0,436.0,141.5,0.0
501778,2125.0,436.0,141.5,0.0
501791,1952.0,435.0,141.5,0.0
501791,1924.0,435.0,141.5,0.0
501791,1926.0,435.0,141.5,0.0
501804,2104.0,435.0,141.5,0.0
501804,2096.0,435.0,141.5,0.0
501804,2096.0,435.0,141.5,0.0
501805,2070.0,435.0,141.5,0.0
501821,2188.0,435.0,141.5,0.0
501822,2175.0,435.0,141.5,0.0
501822,2174.0,435.0,141.5,0.0
501822,2173.0,435.0,141.5,0.0
501835,2074.0,435.0,141.5,0.0
501835,2120.0,435.0,141.5,0.0
501836,2164.0,435.0,141.5,0.0
501849,1923.0,434.0,141.5,0.0
501850,1929.0,434.0,141.5,0.0
501850,1910.0,434.0,141.5,0.0
501850,1898.0,434.0,141.5,0.0
501867,1947.0,434.0,141.5,0.0
501868,1968.0,434.0,141.5,0.0
501868,1990.0,434.0,141.5,0.0
501869,1993.0,434.0,141.5,0.0
501881,2196.0,434.0,141.5,0.0
501882,2176.0,434.0,141.5,0.0
501882,2173.0,434.0,141.5,0.0
501899,2196.0,434.0,141.5,0.0
501899,2199.0,434.0,141.5,0.0
501899,2179.0,434.0,141.5,0.0
501900,2163.0,434.0,141.5,0.0
501912,1899.0,433.0,141.5,0.0
501913,1912.0,433.0,141.5,0.0
501913,1898.0,433.0,141.5,0.0
501926,2012.0,433.0,141.5,0.0
501927,1978.0,433.0,141.5,0.0
501927,1993.0,433.0,141.5,0.0
501927,2029.0,433.0,141.5,0.0
501943,2236.0,433.0,141.5,0.0
501943,2166.0,433.0,141.5,0.0
501944,2156.0,433.0,141.5,0.0
501944,2170.0,433.0,141.5,0.0
501957,2087.0,432.0,141.5,0.0
501958,2092.0,432.0,141.5,0.0
501958,2064.0,432.0,141.5,0.0
501974,1915.0,432.0,141.5,0.0
501974,1958.0,432.0,141.5,0.0
501974,1985.0,432.0,141.5,0.0
501974,1984.0,432.0,141.5,0.0
501988,1959.0,432.0,141.5,0.0
501989,1943.0,432.0,141.5,0.0
501989,1973.0,432.0,141.5,0.0
502001,2291.0,431.0,146.3,0.0
502002,2255.0,431.0,146.3,0.0
502002,2229.0,431.0,146.3,0.0
502002,2231.0,431.0,146.3,0.0
502021,2055.0,431.0,146.3,0.0
502021,2073.0,431.0,146.3,0.0
502021,2054.0,431.0,146.3,0.0
502021,2033.0,431.0,146.3,0.0
502034,2144.0,430.0,146.3,0.0
502034,2252.0,430.0,146.3,0.0
502035,2282.0,430.0,146.3,0.0
502048,1903.0,430.0,146.3,0.0
502049,1855.0,430.0,146.3,0.0
502049,1854.0,430.0,146.3,0.0
502049,1858.0,430.0,146.3,0.0
502066,2081.0,429.0,146.3,0.0
502066,2062.0,429.0,146.3,0.0
502067,2054.0,429.0,146.3,0.0
502067,2049.0,429.0,146.3,0.0
502079,1998.0,429.0,146.3,0.0
502080,2015.0,429.0,146.3,0.0
502080,1998.0,429.0,146.3,0.0
502097,2071.0,429.0,146.3,0.0
502097,2074.0,429.0,146.3,0.0
502097,2085.0,429.0,146.3,0.0
502097,2091.0,429.0,146.3,0.0
502110,1938.0,428.0,146.3,0.0
502110,1917.0,428.0,146.3,0.0
502111,1937.0,428.0,146.3,0.0
502123,2108.0,428.0,146.3,0.0
502124,2099.0,428.0,146.3,0.0
502124,2098.0,428.0,146.3,0.0
502124,2093.0,428.0,146.3,0.0
502142,2118.0,428.0,146.3,0.0
502143,2128.0,428.0,146.3,0.0
502143,2130.0,428.0,146.3,0.0
502143,2133.0,428.0,146.3,0.0
502157,4095.0,428.0,146.3,0.0
502157,4095.0,428.0,146.3,0.0
502157,4095.0,428.0,146.3,0.0
502170,1706.0,428.0,146.3,0.0
502171,1598.0,428.0,146.3,0.0
502171,1402.0,428.0,146.3,0.0
502171,1258.0,428.0,146.3,0.0
502188,2159.0,428.0,146.3,0.0
502188,2207.0,428.0,146.3,0.0
502189,2216.0,428.0,146.3,0.0
502189,2065.0,428.0,146.3,0.0
502201,1870.0,428.0,146.3,0.0
502202,1924.0,428.0,146.3,0.0
502202,2064.0,428.0,146.3,0.0
502219,2140.0,428.0,146.3,0.0
502219,2053.0,428.0,146.3,0.0
502219,1956.0,428.0,146.3,0.0
502219,2001.0,428.0,146.3,0.0
502232,1926.0,427.0,146.3,0.0
502232,2015.0,427.0,146.3,0.0
502233,1927.0,427.0,146.3,0.0
502246,1926.0,427.0,146.3,0.0
502247,1950.0,427.0,146.3,0.0
502247,2052.0,427.0,146.3,0.0
502247,2081.0,427.0,146.3,0.0
502265,2090.0,427.0,146.3,0.0
502265,1989.0,427.0,146.3,0.0
502265,2018.0,427.0,146.3,0.0
502266,2119.0,427.0,146.3,0.0
502278,2384.0,427.0,146.3,0.0
502278,2307.0,427.0,146.3,0.0
502279,2240.0,427.0,146.3,0.0
502291,1813.0,426.0,146.3,0.0
502292,1903.0,426.0,146.3,0.0
502292,1908.0,426.0,146.3,0.0
502292,1807.0,426.0,146.3,0.0
502309,1889.0,427.0,146.3,0.0
502310,1925.0,427.0,146.3,0.0
502310,2018.0,427.0,146.3,0.0
502310,2011.0,427.0,146.3,0.0
502323,2118.0,427.0,146.3,0.0
502323,2030.0,427.0,146.3,0.0
502324,2106.0,427.0,146.3,0.0
502340,2186.0,426.0,146.3,0.0
502341,2190.0,426.0,146.3,0.0
502341,2104.0,426.0,146.3,0.0
502341,2048.0,426.0,146.3,0.0
502355,1861.0,426.0,146.3,0.0
502355,1953.0,426.0,146.3,0.0
502355,1972.0,426.0,146.3,0.0
502368,1968.0,426.0,146.3,0.0
502368,1928.0,426.0,146.3,0.0
502368,1977.0,426.0,146.3,0.0
502369,2054.0,426.0,146.3,0.0
502386,2062.0,426.0,146.3,0.0
502387,1978.0,426.0,146.3,0.0
502387,1924.0,426.0,146.3,0.0
502387,1970.0,426.0,146.3,0.0
502400,2374.0,426.0,146.3,0.0
502400,2351.0,426.0,146.3,0.0
502400,2286.0,426.0,146.3,0.0
502414,1807.0,425.0,146.3,0.0
502414,1862.0,425.0,146.3,0.0
502414,1912.0,425.0,146.3,0.0
502415,1899.0,425.0,146.3,0.0
502430,1979.0,425.0,146.3,0.0
502431,1949.0,425.0,146.3,0.0
502431,1983.0,425.0,146.3,0.0
502431,2019.0,425.0,146.3,0.0
502445,2041.0,425.0,146.3,0.0
502445,1980.0,425.0,146.3,0.0
502445,1965.0,425.0,146.3,0.0
502462,2109.0,425.0,146.3,0.0
502462,2149.0,425.0,146.3,0.0
502462,2127.0,425.0,146.3,0.0
502463,2077.0,425.0,146.3,0.0
502476,2607.0,426.0,146.3,0.0
502477,2691.0,426.0,146.3,0.0
502477,2758.0,426.0,146.3,0.0
502489,1812.0,426.0,146.3,0.0
502490,1691.0,426.0,146.3,0.0
502490,1636.0,426.0,146.3,0.0
502490,1616.0,426.0,146.3,0.0
502508,2074.0,426.0,146.3,0.0
502508,2089.0,426.0,146.3,0.0
502509,2064.0,426.0,146.3,0.0
502509,2031.0,426.0,146.3,0.0
502521,2005.0,426.0,146.3,0.0
502522,2024.0,426.0,146.3,0.0
502522,2055.0,426.0,146.3,0.0
502535,2391.0,426.0,146.3,0.0
502536,2410.0,426.0,146.3,0.0
502536,2425.0,426.0,146.3,0.0
502536,2497.0,426.0,146.3,0.0
502552,1753.0,426.0,146.3,0.0
502552,1727.0,426.0,146.3,0.0
502553,1675.0,426.0,146.3,0.0
502553,1642.0,426.0,146.3,0.0
502566,2063.0,426.0,146.3,0.0
502567,2100.0,426.0,146.3,0.0
502567,2088.0,426.0,146.3,0.0
502584,2023.0,426.0,146.3,0.0
502584,1988.0,426.0,146.3,0.0
502584,2012.0,426.0,146.3,0.0
502584,2066.0,426.0,146.3,0.0
502597,2196.0,426.0,146.3,0.0
502598,2166.0,426.0,146.3,0.0
502598,2153.0,426.0,146.3,0.0
502610,1924.0,426.0,146.3,0.0
502611,1930.0,426.0,146.3,0.0
502611,1937.0,426.0,146.3,0.0
502611,1860.0,426.0,146.3,0.0
502629,1922.0,427.0,146.3,0.0
502630,1950.0,427.0,146.3,0.0
502630,1932.0,427.0,146.3,0.0
502630,1979.0,427.0,146.3,0.0
502644,2078.0,427.0,146.3,0.0
502644,2045.0,427.0,146.3,0.0
502644,2090.0,427.0,146.3,0.0
502657,2076.0,427.0,146.3,0.0
502658,2096.0,427.0,146.3,0.0
502658,2046.0,427.0,146.3,0.0
502658,2034.0,427.0,146.3,0.0
502675,1879.0,427.0,146.3,0.0
502675,1917.0,427.0,146.3,0.0
502676,1896.0,427.0,146.3,0.0
502676,1861.0,427.0,146.3,0.0
502688,1959.0,427.0,146.3,0.0
502689,1984.0,427.0,146.3,0.0
502689,2040.0,427.0,146.3,0.0
502706,2043.0,427.0,146.3,0.0
502706,1985.0,427.0,146.3,0.0
502706,1967.0,427.0,146.3,0.0
502706,2001.0,427.0,146.3,0.0
502719,2118.0,427.0,146.3,0.0
502719,2111.0,427.0,146.3,0.0
502720,2085.0,427.0,146.3,0.0
502733,1944.0,427.0,146.3,0.0
502734,1944.0,427.0,146.3,0.0
502734,1984.0,427.0,146.3,0.0
502734,1968.0,427.0,146.3,0.0
502751,1904.0,428.0,146.3,0.0
502751,1906.0,428.0,146.3,0.0
502752,1928.0,428.0,146.3,0.0
502752,1942.0,428.0,146.3,0.0
502765,2064.0,428.0,146.3,0.0
502766,2015.0,428.0,146.3,0.0
502766,2016.0,428.0,146.3,0.0
502779,2069.0,428.0,146.3,0.0
502779,2100.0,428.0,146.3,0.0
502779,2081.0,428.0,146.3,0.0
502780,2070.0,428.0,146.3,0.0
502796,2107.0,428.0,146.3,0.0
502797,2154.0,428.0,146.3,0.0
502797,2177.0,428.0,146.3,0.0
502797,2165.0,428.0,146.3,0.0
502810,1910.0,428.0,146.3,0.0
502810,1900.0,428.0,146.3,0.0
502810,1921.0,428.0,146.3,0.0
502824,2068.0,428.0,146.3,0.0
502825,2049.0,428.0,146.3,0.0
502825,2030.0,428.0,146.3,0.0
502825,2039.0,428.0,146.3,0.0
502841,2147.0,428.0,146.3,0.0
502841,2153.0,428.0,146.3,0.0
502841,2134.0,428.0,146.3,0.0
502841,2118.0,428.0,146.3,0.0
502855,2102.0,428.0,146.3,0.0
502856,2147.0,428.0,146.3,0.0
502856,2160.0,428.0,146.3,0.0
502873,1852.0,428.0,146.3,0.0
502873,1880.0,428.0,146.3,0.0
502874,1884.0,428.0,146.3,0.0
502874,1907.0,428.0,146.3,0.0
502886,2027.0,428.0,146.3,0.0
502887,2021.0,428.0,146.3,0.0
502887,2025.0,428.0,146.3,0.0
502900,2056.0,428.0,146.3,0.0
502900,2068.0,428.0,146.3,0.0
502900,2058.0,428.0,146.3,0.0
502900,2073.0,428.0,146.3,0.0
502917,2270.0,428.0,146.3,0.0
502918,2277.0,428.0,146.3,0.0
502918,2288.0,428.0,146.3,0.0
502918,2288.0,428.0,146.3,0.0
502931,1876.0,428.0,146.3,0.0
502931,1871.0,428.0,146.3,0.0
502932,1850.0,428.0,146.3,0.0
502945,2031.0,428.0,146.3,0.0
502945,2012.0,428.0,146.3,0.0
502946,2051.0,428.0,146.3,0.0
502946,2057.0,428.0,146.3,0.0
502963,2119.0,428.0,146.3,0.0
502963,2090.0,428.0,146.3,0.0
502963,2095.0,428.0,146.3,0.0
502963,2096.0,428.0,146.3,0.0
502976,1968.0,428.0,146.3,0.0
502976,1961.0,428.0,146.3,0.0
502977,1961.0,428.0,146.3,0.0
502994,1981.0,428.0,146.3,0.0
502994,2017.0,428.0,146.3,0.0
502994,2044.0,428.0,146.3,0.0
502995,2052.0,428.0,146.3,0.0
503007,1975.0,428.0,146.3,0.0
503008,1969.0,428.0,146.3,0.0
503008,1970.0,428.0,146.3,0.0
503020,2135.0,428.0,146.3,0.0
503021,2111.0,428.0,146.3,0.0
503021,2105.0,428.0,146.3,0.0
503021,2115.0,428.0,146.3,0.0
503038,2136.0,428.0,146.3,0.0
503038,2135.0,428.0,146.3,0.0
503039,2125.0,428.0,146.3,0.0
503039,2108.0,428.0,146.3,0.0
503052,1900.0,428.0,146.3,0.0
503053,1910.0,428.0,146.3,0.0
503053,1920.0,428.0,146.3,0.0
503069,1962.0,428.0,146.3,0.0
503069,1926.0,428.0,146.3,0.0
503069,1930.0,428.0,146.3,0.0
503070,1949.0,428.0,146.3,0.0
503083,2089.0,428.0,146.3,0.0
503084,2053.0,428.0,146.3,0.0
503084,2044.0,428.0,146.3,0.0
503096,2107.0,428.0,146.3,0.0
503097,2136.0,428.0,146.3,0.0
503097,2111.0,428.0,146.3,0.0
503097,2126.0,428.0,146.3,0.0
503115,1915.0,429.0,146.3,0.0
503115,1961.0,429.0,146.3,0.0
503115,1965.0,429.0,146.3,0.0
503116,1940.0,429.0,146.3,0.0
503128,1985.0,429.0,146.3,0.0
503129,1975.0,429.0,146.3,0.0
503129,2008.0,429.0,146.3,0.0
503142,2039.0,430.0,146.3,0.0
503143,2019.0,430.0,146.3,0.0
503143,1999.0,430.0,146.3,0.0
503143,2012.0,430.0,146.3,0.0
503159,2202.0,430.0,146.3,0.0
503159,2204.0,430.0,146.3,0.0
503160,2193.0,430.0,146.3,0.0
503160,2185.0,430.0,146.3,0.0
503174,1898.0,429.0,146.3,0.0
503174,1890.0,429.0,146.3,0.0
503174,1919.0,429.0,146.3,0.0
503191,1950.0,429.0,146.3,0.0
503192,1943.0,429.0,146.3,0.0
503192,1946.0,429.0,146.3,0.0
503192,1975.0,429.0,146.3,0.0
503204,2083.0,429.0,146.3,0.0
503205,2055.0,429.0,146.3,0.0
503205,2041.0,429.0,146.3,0.0
503218,2127.0,430.0,146.3,0.0
503218,2164.0,430.0,146.3,0.0
503218,2151.0,430.0,146.3,0.0
503219,2128.0,430.0,146.3,0.0
503237,2167.0,430.0,146.3,0.0
503237,2204.0,430.0,146.3,0.0
503237,2213.0,430.0,146.3,0.0
503237,2214.0,430.0,146.3,0.0
503251,1880.0,430.0,146.3,0.0
503251,1881.0,430.0,146.3,0.0
503252,1881.0,430.0,146.3,0.0
503264,2128.0,430.0,146.3,0.0
503265,2107.0,430.0,146.3,0.0
503265,2111.0,430.0,146.3,0.0
503265,2110.0,430.0,146.3,0.0
503282,2128.0,431.0,146.3,0.0
503282,2112.0,431.0,146.3,0.0
503282,2101.0,431.0,146.3,0.0
503282,2107.0,431.0,146.3,0.0
503295,2074.0,431.0,146.3,0.0
503295,2120.0,431.0,146.3,0.0
503296,2126.0,431.0,146.3,0.0
503308,1967.0,431.0,146.3,0.0
503309,1964.0,431.0,146.3,0.0
503309,1952.0,431.0,146.3,0.0
503309,1943.0,431.0,146.3,0.0
503326,2064.0,431.0,146.3,0.0
503326,2049.0,431.0,146.3,0.0
503327,2061.0,431.0,146.3,0.0
503327,2049.0,431.0,146.3,0.0
503339,2118.0,431.0,146.3,0.0
503340,2125.0,431.0,146.3,0.0
503340,2131.0,431.0,146.3,0.0
503357,2154.0,431.0,146.3,0.0
503357,2199.0,431.0,146.3,0.0
503357,2183.0,431.0,146.3,0.0
503358,2174.0,431.0,146.3,0.0
503371,1898.0,431.0,146.3,0.0
503372,1908.0,431.0,146.3,0.0
503372,1906.0,431.0,146.3,0.0
503384,2059.0,432.0,146.3,0.0
503385,2037.0,432.0,146.3,0.0
503385,2043.0,432.0,146.3,0.0
503385,2068.0,432.0,146.3,0.0
503402,2191.0,432.0,146.3,0.0
503402,2139.0,432.0,146.3,0.0
503402,2116.0,432.0,146.3,0.0
503403,2141.0,432.0,146.3,0.0
503415,1901.0,432.0,146.3,0.0
503416,1917.0,432.0,146.3,0.0
503416,1886.0,432.0,146.3,0.0
503432,1941.0,433.0,146.3,0.0
503433,1940.0,433.0,146.3,0.0
503433,1964.0,433.0,146.3,0.0
503433,1966.0,433.0,146.3,0.0
503446,2000.0,433.0,146.3,0.0
503446,1981.0,433.0,146.3,0.0
503446,2003.0,433.0,146.3,0.0
503459,2191.0,433.0,146.3,0.0
503459,2180.0,433.0,146.3,0.0
503460,2162.0,433.0,146.3,0.0
503477,2069.0,434.0,146.3,0.0
503478,2087.0,434.0,146.3,0.0
503478,2104.0,434.0,146.3,0.0
503478,2102.0,434.0,146.3,0.0
503492,1929.0,434.0,146.3,0.0
503492,1922.0,434.0,146.3,0.0
503492,1950.0,434.0,146.3,0.0
503505,1965.0,435.0,146.3,0.0
503505,2045.0,435.0,146.3,0.0
503506,2029.0,435.0,146.3,0.0
503506,2034.0,435.0,146.3,0.0
503522,2122.0,435.0,146.3,0.0
503523,2123.0,435.0,146.3,0.0
503523,2108.0,435.0,146.3,0.0
503523,2099.0,435.0,146.3,0.0
503536,2054.0,435.0,146.3,0.0
503536,2085.0,435.0,146.3,0.0
503536,2093.0,435.0,146.3,0.0
503550,1938.0,436.0,146.3,0.0
503550,1926.0,436.0,146.3,0.0
503551,1924.0,436.0,146.3,0.0
503551,1921.0,436.0,146.3,0.0
503566,2056.0,436.0,146.3,0.0
503567,2024.0,436.0,146.3,0.0
503567,2010.0,436.0,146.3,0.0
503567,2002.0,436.0,146.3,0.0
503581,2210.0,436.0,146.3,0.0
503581,2198.0,436.0,146.3,0.0
503581,2198.0,436.0,146.3,0.0
503597,2021.0,437.0,146.3,0.0
503598,2023.0,437.0,146.3,0.0
503598,2021.0,437.0,146.3,0.0
503598,2016.0,437.0,146.3,0.0
503612,1953.0,437.0,146.3,0.0
503612,1959.0,437.0,146.3,0.0
503612,1957.0,437.0,146.3,0.0
503625,2031.0,437.0,146.3,0.0
503625,1993.0,437.0,146.3,0.0
503625,2025.0,437.0,146.3,0.0
503626,2038.0,437.0,146.3,0.0
503642,2211.0,437.0,146.3,0.0
503643,2173.0,437.0,146.3,0.0
503643,2167.0,437.0,146.3,0.0
503643,2174.0,437.0,146.3,0.0
503656,2026.0,437.0,146.3,0.0
503656,2044.0,437.0,146.3,0.0
503656,2034.0,437.0,146.3,0.0
503670,1948.0,438.0,146.3,0.0
503670,1962.0,438.0,146.3,0.0
503670,1969.0,438.0,146.3,0.0
503670,1960.0,438.0,146.3,0.0
503686,2015.0,438.0,146.3,0.0
503687,1992.0,438.0,146.3,0.0
503688,1992.0,438.0,146.3,0.0
503688,1998.0,438.0,146.3,0.0
503702,2263.0,439.0,146.3,0.0
503702,2221.0,439.0,146.3,0.0
503702,2219.0,439.0,146.3,0.0
503703,2230.0,439.0,146.3,0.0
503720,2130.0,439.0,146.3,0.0
503720,2118.0,439.0,146.3,0.0
503720,2096.0,439.0,146.3,0.0
503720,2102.0,439.0,146.3,0.0
503733,1928.0,439.0,146.3,0.0
503733,1944.0,439.0,146.3,0.0
503734,1920.0,439.0,146.3,0.0
503746,2001.0,439.0,146.3,0.0
503747,1990.0,439.0,146.3,0.0
503747,2015.0,439.0,146.3,0.0
503747,2026.0,439.0,146.3,0.0
503764,2054.0,439.0,146.3,0.0
503764,2018.0,439.0,146.3,0.0
503764,2019.0,439.0,146.3,0.0
503764,2042.0,439.0,146.3,0.0
503777,2254.0,439.0,146.3,0.0
503777,2242.0,439.0,146.3,0.0
503778,2223.0,439.0,146.3,0.0
503791,1873.0,439.0,146.3,0.0
503792,1905.0,439.0,146.3,0.0
503792,1865.0,439.0,146.3,0.0
503792,1861.0,439.0,146.3,0.0
503808,1976.0,439.0,146.3,0.0
503808,2003.0,439.0,146.3,0.0
503808,2035.0,439.0,146.3,0.0
503809,2030.0,439.0,146.3,0.0
503822,2018.0,438.0,146.3,0.0
503822,1997.0,438.0,146.3,0.0
503823,2018.0,438.0,146.3,0.0
503839,2408.0,438.0,146.3,0.0
503840,2385.0,438.0,146.3,0.0
503840,2361.0,438.0,146.3,0.0
503840,2357.0,438.0,146.3,0.0
503853,1809.0,438.0,146.3,0.0
503853,1853.0,438.0,146.3,0.0
503853,1859.0,438.0,146.3,0.0
503866,2046.0,438.0,146.3,0.0
503866,2027.0,438.0,146.3,0.0
503867,2068.0,438.0,146.3,0.0
503883,2144.0,438.0,146.3,0.0
503884,2111.0,438.0,146.3,0.0
503884,2068.0,438.0,146.3,0.0
503884,2062.0,438.0,146.3,0.0
503896,1988.0,438.0,146.3,0.0
503897,2026.0,438.0,146.3,0.0
503897,2001.0,438.0,146.3,0.0
503911,1947.0,438.0,146.3,0.0
503911,1939.0,438.0,146.3,0.0
503911,1971.0,438.0,146.3,0.0
503911,1992.0,438.0,146.3,0.0
503927,1995.0,438.0,146.3,0.0
503928,1967.0,438.0,146.3,0.0
503928,1967.0,438.0,146.3,0.0
503928,1997.0,438.0,146.3,0.0
503941,2158.0,437.0,146.3,0.0
503942,2138.0,437.0,146.3,0.0
503942,2109.0,437.0,146.3,0.0
503959,2088.0,437.0,146.3,0.0
503959,2120.0,437.0,146.3,0.0
503959,2130.0,437.0,146.3,0.0
503960,2118.0,437.0,146.3,0.0
503972,1911.0,437.0,146.3,0.0
503973,1906.0,437.0,146.3,0.0
503973,1914.0,437.0,146.3,0.0
503985,2070.0,437.0,146.3,0.0
503986,2032.0,437.0,146.3,0.0
503986,2009.0,437.0,146.3,0.0
504002,2048.0,438.0,146.3,0.0
504003,2050.0,438.0,146.3,0.0
504003,2050.0,438.0,146.3,0.0
504003,2024.0,438.0,146.3,0.0
504016,1977.0,438.0,146.3,0.0
504016,2002.0,438.0,146.3,0.0
504016,2020.0,438.0,146.3,0.0
504030,1977.0,438.0,146.3,0.0
504030,1959.0,438.0,146.3,0.0
504031,1951.0,438.0,146.3,0.0
504031,1959.0,438.0,146.3,0.0
504046,2019.0,438.0,146.3,0.0
504047,2014.0,438.0,146.3,0.0
504047,1991.0,438.0,146.3,0.0
504047,1986.0,438.0,146.3,0.0
504061,2150.0,438.0,146.3,0.0
504061,2156.0,438.0,146.3,0.0
504061,2148.0,438.0,146.3,0.0
504078,2057.0,437.0,146.3,0.0
504079,2058.0,437.0,146.3,0.0
504079,2064.0,437.0,146.3,0.0
504079,2068.0,437.0,146.3,0.0
504092,1950.0,437.0,146.3,0.0
504092,1948.0,437.0,146.3,0.0
504092,1929.0,437.0,146.3,0.0
504105,2052.0,437.0,146.3,0.0
504106,2047.0,437.0,146.3,0.0
504106,2058.0,437.0,146.3,0.0
504106,2053.0,437.0,146.3,0.0
504123,2087.0,438.0,146.3,0.0
504123,2071.0,438.0,146.3,0.0
504123,2077.0,438.0,146.3,0.0
504123,2086.0,438.0,146.3,0.0
504136,2134.0,438.0,146.3,0.0
504137,2144.0,438.0,146.3,0.0
504137,2155.0,438.0,146.3,0.0
504150,1917.0,438.0,146.3,0.0
504151,1938.0,438.0,146.3,0.0
504151,1918.0,438.0,146.3,0.0
504151,1887.0,438.0,146.3,0.0
504168,1972.0,438.0,146.3,0.0
504169,1965.0,438.0,146.3,0.0
504169,2029.0,438.0,146.3,0.0
504169,1977.0,438.0,146.3,0.0
504182,2046.0,438.0,146.3,0.0
504182,2038.0,438.0,146.3,0.0
504182,2048.0,438.0,146.3,0.0
504199,2100.0,437.0,146.3,0.0
504200,2101.0,437.0,146.3,0.0
504200,2079.0,437.0,146.3,0.0
504201,2077.0,437.0,146.3,0.0
504213,1944.0,437.0,146.3,0.0
504214,2018.0,437.0,146.3,0.0
504214,2013.0,437.0,146.3,0.0
504227,1966.0,437.0,146.3,0.0
504228,1970.0,437.0,146.3,0.0
504228,1960.0,437.0,146.3,0.0
504228,1964.0,437.0,146.3,0.0
504244,1984.0,437.0,146.3,0.0
504245,1986.0,437.0,146.3,0.0
504245,1978.0,437.0,146.3,0.0
504245,1993.0,437.0,146.3,0.0
504258,2666.0,437.0,146.3,0.0
504259,2621.0,437.0,146.3,0.0
504259,2625.0,437.0,146.3,0.0
504275,1860.0,437.0,146.3,0.0
504275,1927.0,437.0,146.3,0.0
504275,1910.0,437.0,146.3,0.0
504276,1891.0,437.0,146.3,0.0
504289,1987.0,437.0,146.3,0.0
504290,2026.0,437.0,146.3,0.0
504290,2025.0,437.0,146.3,0.0
504302,2172.0,437.0,146.3,0.0
504303,2126.0,437.0,146.3,0.0
504303,2129.0,437.0,146.3,0.0
504303,2172.0,437.0,146.3,0.0
504321,2251.0,436.0,146.3,0.0
504322,2201.0,436.0,146.3,0.0
504322,2159.0,436.0,146.3,0.0
504322,2183.0,436.0,146.3,0.0
504335,2280.0,436.0,146.3,0.0
504335,2417.0,436.0,146.3,0.0
504335,2425.0,436.0,146.3,0.0
504349,1830.0,436.0,146.3,0.0
504349,1792.0,436.0,146.3,0.0
504349,1806.0,436.0,146.3,0.0
504350,1785.0,436.0,146.3,0.0
504365,2146.0,436.0,146.3,0.0
504366,2118.0,436.0,146.3,0.0
504366,2146.0,436.0,146.3,0.0
504366,2172.0,436.0,146.3,0.0
504380,2162.0,436.0,146.3,0.0
504380,2120.0,436.0,146.3,0.0
504380,2128.0,436.0,146.3,0.0
504397,2360.0,435.0,146.3,0.0
504398,2437.0,435.0,146.3,0.0
504398,2411.0,435.0,146.3,0.0
504398,2386.0,435.0,146.3,0.0
504411,1827.0,435.0,146.3,0.0
504411,1832.0,435.0,146.3,0.0
504411,1843.0,435.0,146.3,0.0
504424,2102.0,435.0,146.3,0.0
504424,2070.0,435.0,146.3,0.0
504424,2092.0,435.0,146.3,0.0
504425,2129.0,435.0,146.3,0.0
504442,2351.0,436.0,146.3,0.0
504443,2292.0,436.0,146.3,0.0
504443,2262.0,436.0,146.3,0.0
504443,2267.0,436.0,146.3,0.0
504457,2141.0,436.0,146.3,0.0
504457,2160.0,436.0,146.3,0.0
504457,2126.0,436.0,146.3,0.0
504470,1919.0,436.0,146.3,0.0
504470,1942.0,436.0,146.3,0.0
504470,1954.0,436.0,146.3,0.0
504471,1948.0,436.0,146.3,0.0
504487,1978.0,436.0,146.3,0.0
504488,1958.0,436.0,146.3,0.0
504488,1975.0,436.0,146.3,0.0
504488,1991.0,436.0,146.3,0.0
504501,2204.0,436.0,146.3,0.0
504501,2166.0,436.0,146.3,0.0
504501,2164.0,436.0,146.3,0.0
504514,2011.0,435.0,146.3,0.0
504514,2056.0,435.0,146.3,0.0
504514,2049.0,435.0,146.3,0.0
504531,1868.0,435.0,146.3,0.0
504532,1869.0,435.0,146.3,0.0
504532,1922.0,435.0,146.3,0.0
504532,1921.0,435.0,146.3,0.0
504545,2071.0,435.0,146.3,0.0
504545,2019.0,435.0,146.3,0.0
504545,2022.0,435.0,146.3,0.0
504563,3503.0,435.0,196.7,0.0
504563,3376.0,435.0,196.7,0.0
504563,3298.0,435.0,196.7,0.0
504564,3254.0,435.0,196.7,0.0
504577,1280.0,435.0,196.7,0.0
504577,1346.0,435.0,196.7,0.0
504578,1303.0,435.0,196.7,0.0
504590,2269.0,435.0,196.7,0.0
504591,2287.0,435.0,196.7,0.0
504591,2355.0,435.0,196.7,0.0
504591,2372.0,435.0,196.7,0.0
504608,1877.0,435.0,196.7,0.0
504608,1798.0,435.0,196.7,0.0
504608,1804.0,435.0,196.7,0.0
504608,1870.0,435.0,196.7,0.0
504621,2297.0,434.0,196.7,0.0
504621,2238.0,434.0,196.7,0.0
504622,2183.0,434.0,196.7,0.0
504634,1995.0,434.0,196.7,0.0
504635,2097.0,434.0,196.7,0.0
504635,2127.0,434.0,196.7,0.0
504635,2097.0,434.0,196.7,0.0
504652,1825.0,434.0,196.7,0.0
504652,1864.0,434.0,196.7,0.0
504652,1914.0,434.0,196.7,0.0
504653,1931.0,434.0,196.7,0.0
504666,2038.0,434.0,196.7,0.0
504666,1973.0,434.0,196.7,0.0
504667,1996.0,434.0,196.7,0.0
504683,2175.0,434.0,196.7,0.0
504683,2150.0,434.0,196.7,0.0
504683,2107.0,434.0,196.7,0.0
504684,2082.0,434.0,196.7,0.0
504698,2277.0,434.0,196.7,0.0
504698,2314.0,434.0,196.7,0.0
504698,2312.0,434.0,196.7,0.0
504711,1867.0,434.0,196.7,0.0
504711,1848.0,434.0,196.7,0.0
504712,1855.0,434.0,196.7,0.0
504712,1866.0,434.0,196.7,0.0
504729,1950.0,434.0,196.7,0.0
504729,1916.0,434.0,196.7,0.0
504729,1906.0,434.0,196.7,0.0
504730,1907.0,434.0,196.7,0.0
504742,2160.0,433.0,196.7,0.0
504742,2160.0,433.0,196.7,0.0
504743,2146.0,433.0,196.7,0.0
504756,2132.0,433.0,196.7,0.0
504757,2161.0,433.0,196.7,0.0
504757,2174.0,433.0,196.7,0.0
504757,2181.0,433.0,196.7,0.0
504773,1868.0,433.0,196.7,0.0
504773,1857.0,433.0,196.7,0.0
504773,1854.0,433.0,196.7,0.0
504774,1847.0,433.0,196.7,0.0
504787,2014.0,432.0,196.7,0.0
504788,2009.0,432.0,196.7,0.0
504788,2013.0,432.0,196.7,0.0
504804,2151.0,432.0,196.7,0.0
504804,2112.0,432.0,196.7,0.0
504805,2108.0,432.0,196.7,0.0
504805,2095.0,432.0,196.7,0.0
504818,1955.0,431.0,196.7,0.0
504819,1964.0,431.0,196.7,0.0
504819,1964.0,431.0,196.7,0.0
504832,1992.0,431.0,196.7,0.0
504832,1990.0,431.0,196.7,0.0
504832,1988.0,431.0,196.7,0.0
504833,1994.0,431.0,196.7,0.0
504849,1931.0,430.0,196.7,0.0
504850,1924.0,430.0,196.7,0.0
504850,1937.0,430.0,196.7,0.0
504850,1938.0,430.0,196.7,0.0
504863,2039.0,430.0,196.7,0.0
504863,2025.0,430.0,196.7,0.0
504863,2019.0,430.0,196.7,0.0
504877,2001.0,429.0,196.7,0.0
504877,2007.0,429.0,196.7,0.0
504877,2007.0,429.0,196.7,0.0
504878,1998.0,429.0,196.7,0.0
504893,1993.0,429.0,196.7,0.0
504894,2039.0,429.0,196.7,0.0
504894,2046.0,429.0,196.7,0.0
504894,2055.0,429.0,196.7,0.0
504908,1957.0,428.0,196.7,0.0
504908,1951.0,428.0,196.7,0.0
504908,1878.0,428.0,196.7,0.0
504925,2077.0,428.0,196.7,0.0
504926,2035.0,428.0,196.7,0.0
504926,2035.0,428.0,196.7,0.0
504926,2040.0,428.0,196.7,0.0
504939,2028.0,428.0,196.7,0.0
504939,2031.0,428.0,196.7,0.0
504939,2029.0,428.0,196.7,0.0
504952,2032.0,427.0,196.7,0.0
504952,1959.0,427.0,196.7,0.0
504952,1969.0,427.0,196.7,0.0
504953,1956.0,427.0,196.7,0.0
504969,1926.0,428.0,196.7,0.0
504970,1923.0,428.0,196.7,0.0
504970,1933.0,428.0,196.7,0.0
504970,1928.0,428.0,196.7,0.0
504983,2027.0,427.0,196.7,0.0
504983,2025.0,427.0,196.7,0.0
504983,2017.0,427.0,196.7,0.0
504997,2096.0,427.0,196.7,0.0
504997,2101.0,427.0,196.7,0.0
504998,2113.0,427.0,196.7,0.0
504998,2110.0,427.0,196.7,0.0
505015,1946.0,427.0,196.7,0.0
505015,1972.0,427.0,196.7,0.0
505015,1969.0,427.0,196.7,0.0
505016,1974.0,427.0,196.7,0.0
505028,1966.0,427.0,196.7,0.0
505029,1975.0,427.0,196.7,0.0
505029,1987.0,427.0,196.7,0.0
505046,1986.0,426.0,196.7,0.0
505046,1992.0,426.0,196.7,0.0
505046,1991.0,426.0,196.7,0.0
505046,1987.0,426.0,196.7,0.0
505059,2080.0,426.0,196.7,0.0
505059,2086.0,426.0,196.7,0.0
505060,2073.0,426.0,196.7,0.0
505072,1932.0,426.0,196.7,0.0
505073,1931.0,426.0,196.7,0.0
505073,1919.0,426.0,196.7,0.0
505073,1900.0,426.0,196.7,0.0
505090,1982.0,426.0,196.7,0.0
505090,1968.0,426.0,196.7,0.0
505090,1997.0,426.0,196.7,0.0
505090,2003.0,426.0,196.7,0.0
505103,2065.0,426.0,196.7,0.0
505104,2048.0,426.0,196.7,0.0
505104,2043.0,426.0,196.7,0.0
505117,2110.0,425.0,196.7,0.0
505118,2123.0,425.0,196.7,0.0
505118,2121.0,425.0,196.7,0.0
505118,2121.0,425.0,196.7,0.0
505135,1909.0,425.0,196.7,0.0
505135,1928.0,425.0,196.7,0.0
505136,1930.0,425.0,196.7,0.0
505136,1920.0,425.0,196.7,0.0
505148,1983.0,425.0,196.7,0.0
505149,1990.0,425.0,196.7,0.0
505149,1974.0,425.0,196.7,0.0
505166,2043.0,425.0,196.7,0.0
505167,1997.0,425.0,196.7,0.0
505167,1985.0,425.0,196.7,0.0
505167,1989.0,425.0,196.7,0.0
505180,2192.0,425.0,196.7,0.0
505180,2195.0,425.0,196.7,0.0
505180,2187.0,425.0,196.7,0.0
505193,1884.0,424.0,196.7,0.0
505193,1904.0,424.0,196.7,0.0
505193,1935.0,424.0,196.7,0.0
505210,1927.0,424.0,196.7,0.0
505210,1900.0,424.0,196.7,0.0
505211,1905.0,424.0,196.7,0.0
505211,1921.0,424.0,196.7,0.0
505224,2069.0,424.0,196.7,0.0
505225,2041.0,424.0,196.7,0.0
505225,2047.0,424.0,196.7,0.0
505241,2073.0,424.0,196.7,0.0
505241,2095.0,424.0,196.7,0.0
505241,2068.0,424.0,196.7,0.0
505241,2057.0,424.0,196.7,0.0
505255,2093.0,424.0,196.7,0.0
505255,2129.0,424.0,196.7,0.0
505256,2145.0,424.0,196.7,0.0
505268,1960.0,424.0,196.7,0.0
505268,1940.0,424.0,196.7,0.0
505269,1922.0,424.0,196.7,0.0
505269,1937.0,424.0,196.7,0.0
505287,2013.0,424.0,196.7,0.0
505287,2007.0,424.0,196.7,0.0
505287,1997.0,424.0,196.7,0.0
505288,1983.0,424.0,196.7,0.0
505300,2090.0,424.0,196.7,0.0
505301,2093.0,424.0,196.7,0.0
505301,2090.0,424.0,196.7,0.0
505314,2006.0,424.0,196.7,0.0
505315,2038.0,424.0,196.7,0.0
505315,2041.0,424.0,196.7,0.0
505315,2046.0,424.0,196.7,0.0
505331,1936.0,424.0,196.7,0.0
505332,1923.0,424.0,196.7,0.0
505332,1929.0,424.0,196.7,0.0
505332,1923.0,424.0,196.7,0.0
505345,1985.0,424.0,196.7,0.0
505346,1990.0,424.0,196.7,0.0
505346,1998.0,424.0,196.7,0.0
505362,2109.0,424.0,196.7,0.0
505362,2088.0,424.0,196.7,0.0
505362,2082.0,424.0,196.7,0.0
505362,2093.0,424.0,196.7,0.0
505376,2177.0,424.0,196.7,0.0
505376,2226.0,424.0,196.7,0.0
505377,2231.0,424.0,196.7,0.0
505389,1930.0,424.0,196.7,0.0
505390,1926.0,424.0,196.7,0.0
505390,1902.0,424.0,196.7,0.0
505390,1866.0,424.0,196.7,0.0
505408,1988.0,424.0,196.7,0.0
505408,1988.0,424.0,196.7,0.0
505408,2002.0,424.0,196.7,0.0
505408,1972.0,424.0,196.7,0.0
505421,2249.0,424.0,196.7,0.0
505421,2226.0,424.0,196.7,0.0
505422,2246.0,424.0,196.7,0.0
505435,2108.0,424.0,196.7,0.0
505436,2118.0,424.0,196.7,0.0
505436,2094.0,424.0,196.7,0.0
505436,2101.0,424.0,196.7,0.0
505452,1879.0,424.0,196.7,0.0
505452,1910.0,424.0,196.7,0.0
505452,1899.0,424.0,196.7,0.0
505453,1863.0,424.0,196.7,0.0
505466,1998.0,424.0,196.7,0.0
505467,2011.0,424.0,196.7,0.0
505467,2037.0,424.0,196.7,0.0
505484,2092.0,424.0,196.7,0.0
505484,2050.0,424.0,196.7,0.0
505484,2029.0,424.0,196.7,0.0
505484,2061.0,424.0,196.7,0.0
505497,1972.0,424.0,196.7,0.0
505497,1977.0,424.0,196.7,0.0
505498,1935.0,424.0,196.7,0.0
505510,1962.0,425.0,196.7,0.0
505511,1977.0,425.0,196.7,0.0
505511,2006.0,425.0,196.7,0.0
505528,1969.0,425.0,196.7,0.0
505529,1932.0,425.0,196.7,0.0
505529,1919.0,425.0,196.7,0.0
505529,1919.0,425.0,196.7,0.0
505543,2089.0,425.0,196.7,0.0
505543,2072.0,425.0,196.7,0.0
505544,2050.0,425.0,196.7,0.0
505556,2053.0,425.0,196.7,0.0
505557,2083.0,425.0,196.7,0.0
505557,2110.0,425.0,196.7,0.0
505557,2114.0,425.0,196.7,0.0
505574,2027.0,425.0,196.7,0.0
505574,2027.0,425.0,196.7,0.0
505574,2085.0,425.0,196.7,0.0
505575,2121.0,425.0,196.7,0.0
505587,1984.0,425.0,196.7,0.0
505588,1948.0,425.0,196.7,0.0
505588,1935.0,425.0,196.7,0.0
505605,2067.0,425.0,196.7,0.0
505606,2072.0,425.0,196.7,0.0
505606,2069.0,425.0,196.7,0.0
505606,2045.0,425.0,196.7,0.0
505619,3171.0,426.0,196.7,0.0
505619,3091.0,426.0,196.7,0.0
505619,3141.0,426.0,196.7,0.0
505633,1507.0,426.0,196.7,0.0
505634,1532.0,426.0,196.7,0.0
505634,1446.0,426.0,196.7,0.0
505634,1407.0,426.0,196.7,0.0
505651,2031.0,426.0,196.7,0.0
505651,2102.0,426.0,196.7,0.0
505652,2093.0,426.0,196.7,0.0
505652,2031.0,426.0,196.7,0.0
505665,1938.0,426.0,196.7,0.0
505666,1962.0,426.0,196.7,0.0
505666,2039.0,426.0,196.7,0.0
505678,2345.0,426.0,196.7,0.0
505679,2261.0,426.0,196.7,0.0
505679,2229.0,426.0,196.7,0.0
505679,2278.0,426.0,196.7,0.0
505696,1931.0,426.0,196.7,0.0
505696,1971.0,426.0,196.7,0.0
505697,1885.0,426.0,196.7,0.0
505697,1845.0,426.0,196.7,0.0
505709,1981.0,426.0,196.7,0.0
505710,2047.0,426.0,196.7,0.0
505710,2065.0,426.0,196.7,0.0
505727,1972.0,427.0,196.7,0.0
505727,1896.0,427.0,196.7,0.0
505728,1942.0,427.0,196.7,0.0
505728,2004.0,427.0,196.7,0.0
505740,2237.0,427.0,196.7,0.0
505741,2169.0,427.0,196.7,0.0
505741,2131.0,427.0,196.7,0.0
505755,2077.0,428.0,196.7,0.0
505755,2185.0,428.0,196.7,0.0
505755,2191.0,428.0,196.7,0.0
505755,2150.0,428.0,196.7,0.0
505773,1817.0,428.0,196.7,0.0
505774,1913.0,428.0,196.7,0.0
505774,1965.0,428.0,196.7,0.0
505774,1953.0,428.0,196.7,0.0
505787,2002.0,428.0,196.7,0.0
505787,1977.0,428.0,196.7,0.0
505787,2008.0,428.0,196.7,0.0
505800,2202.0,428.0,196.7,0.0
505800,2179.0,428.0,196.7,0.0
505801,2146.0,428.0,196.7,0.0
505801,2124.0,428.0,196.7,0.0
505817,2121.0,428.0,196.7,0.0
505818,2176.0,428.0,196.7,0.0
505818,2151.0,428.0,196.7,0.0
505818,2110.0,428.0,196.7,0.0
505831,1896.0,428.0,196.7,0.0
505831,1921.0,428.0,196.7,0.0
505831,1939.0,428.0,196.7,0.0
505845,2063.0,428.0,196.7,0.0
505845,2021.0,428.0,196.7,0.0
505845,2021.0,428.0,196.7,0.0
505846,2054.0,428.0,196.7,0.0
505862,2125.0,428.0,196.7,0.0
505863,2098.0,428.0,196.7,0.0
505863,2060.0,428.0,196.7,0.0
505863,2054.0,428.0,196.7,0.0
505876,2061.0,428.0,196.7,0.0
505876,2095.0,428.0,196.7,0.0
505876,2076.0,428.0,196.7,0.0
505893,1933.0,429.0,196.7,0.0
505894,1985.0,429.0,196.7,0.0
505894,2015.0,429.0,196.7,0.0
505895,2072.0,429.0,196.7,0.0
505907,1978.0,429.0,196.7,0.0
505908,1930.0,429.0,196.7,0.0
505908,1944.0,429.0,196.7,0.0
505921,2197.0,429.0,196.7,0.0
505922,2193.0,429.0,196.7,0.0
505922,2197.0,429.0,196.7,0.0
505922,2170.0,429.0,196.7,0.0
505938,2034.0,429.0,196.7,0.0
505938,2062.0,429.0,196.7,0.0
505939,2066.0,429.0,196.7,0.0
505939,2052.0,429.0,196.7,0.0
505952,1933.0,429.0,196.7,0.0
505953,1929.0,429.0,196.7,0.0
505953,1936.0,429.0,196.7,0.0
505969,1979.0,429.0,196.7,0.0
505969,1953.0,429.0,196.7,0.0
505969,1948.0,429.0,196.7,0.0
505969,1943.0,429.0,196.7,0.0
505983,2150.0,430.0,196.7,0.0
505983,2128.0,430.0,196.7,0.0
505983,2118.0,430.0,196.7,0.0
505996,2009.0,430.0,196.7,0.0
505996,2028.0,430.0,196.7,0.0
505997,2028.0,430.0,196.7,0.0
505997,2021.0,430.0,196.7,0.0
506014,2030.0,430.0,196.7,0.0
506015,2067.0,430.0,196.7,0.0
506015,2084.0,430.0,196.7,0.0
506015,2087.0,430.0,196.7,0.0
506028,1961.0,430.0,196.7,0.0
506028,1961.0,430.0,196.7,0.0
506029,1953.0,430.0,196.7,0.0
506042,2147.0,431.0,196.7,0.0
506042,2134.0,431.0,196.7,0.0
506043,2120.0,431.0,196.7,0.0
506043,2120.0,431.0,196.7,0.0
506059,2121.0,431.0,196.7,0.0
506059,2119.0,431.0,196.7,0.0
506059,2114.0,431.0,196.7,0.0
506059,2122.0,431.0,196.7,0.0
506073,1921.0,430.0,196.7,0.0
506073,1940.0,430.0,196.7,0.0
506073,1957.0,430.0,196.7,0.0
506089,1920.0,430.0,196.7,0.0
506090,1928.0,430.0,196.7,0.0
506090,1937.0,430.0,196.7,0.0
506090,1931.0,430.0,196.7,0.0
506104,2097.0,430.0,196.7,0.0
506104,2071.0,430.0,196.7,0.0
506104,2082.0,430.0,196.7,0.0
506117,2381.0,431.0,196.7,0.0
506117,2392.0,431.0,196.7,0.0
506117,2395.0,431.0,196.7,0.0
506117,2399.0,431.0,196.7,0.0
506135,1964.0,431.0,196.7,0.0
506136,2007.0,431.0,196.7,0.0
506136,2023.0,431.0,196.7,0.0
506136,2001.0,431.0,196.7,0.0
506149,1987.0,431.0,196.7,0.0
506149,2009.0,431.0,196.7,0.0
506150,2011.0,431.0,196.7,0.0
506163,2109.0,431.0,196.7,0.0
506164,2079.0,431.0,196.7,0.0
506164,2075.0,431.0,196.7,0.0
506164,2099.0,431.0,196.7,0.0
506181,2103.0,432.0,196.7,0.0
506181,2082.0,432.0,196.7,0.0
506181,2061.0,432.0,196.7,0.0
506181,2064.0,432.0,196.7,0.0
506194,1974.0,432.0,196.7,0.0
506194,1999.0,432.0,196.7,0.0
506195,2000.0,432.0,196.7,0.0
506207,1973.0,432.0,196.7,0.0
506207,1986.0,432.0,196.7,0.0
506208,2010.0,432.0,196.7,0.0
506224,2078.0,433.0,196.7,0.0
506225,2074.0,433.0,196.7,0.0
506225,2019.0,433.0,196.7,0.0
506225,2029.0,433.0,196.7,0.0
506238,2261.0,433.0,196.7,0.0
506238,2273.0,433.0,196.7,0.0
506238,2261.0,433.0,196.7,0.0
506255,1920.0,434.0,196.7,0.0
506256,1956.0,434.0,196.7,0.0
506256,1959.0,434.0,196.7,0.0
506256,1959.0,434.0,196.7,0.0
506269,1983.0,434.0,196.7,0.0
506269,1984.0,434.0,196.7,0.0
506269,1992.0,434.0,196.7,0.0
506283,2098.0,435.0,196.7,0.0
506283,2082.0,435.0,196.7,0.0
506283,2074.0,435.0,196.7,0.0
506284,2070.0,435.0,196.7,0.0
506300,2085.0,435.0,196.7,0.0
506301,2079.0,435.0,196.7,0.0
506301,2072.0,435.0,196.7,0.0
506301,2059.0,435.0,196.7,0.0
506314,1950.0,435.0,196.7,0.0
506314,1973.0,435.0,196.7,0.0
506314,1964.0,435.0,196.7,0.0
506331,1968.0,436.0,196.7,0.0
506331,1934.0,436.0,196.7,0.0
506331,1960.0,436.0,196.7,0.0
506332,1967.0,436.0,196.7,0.0
506344,2108.0,436.0,196.7,0.0
506345,2075.0,436.0,196.7,0.0
506345,2065.0,436.0,196.7,0.0
506358,2150.0,436.0,196.7,0.0
506358,2160.0,436.0,196.7,0.0
506358,2148.0,436.0,196.7,0.0
506358,2126.0,436.0,196.7,0.0
506376,2099.0,436.0,196.7,0.0
506376,2122.0,436.0,196.7,0.0
506377,2124.0,436.0,196.7,0.0
506377,2133.0,436.0,196.7,0.0
506390,1924.0,436.0,196.7,0.0
506391,1926.0,436.0,196.7,0.0
506391,1900.0,436.0,196.7,0.0
506404,2087.0,437.0,196.7,0.0
506404,2074.0,437.0,196.7,0.0
506404,2072.0,437.0,196.7,0.0
506404,2081.0,437.0,196.7,0.0
506421,2131.0,437.0,196.7,0.0
506421,2116.0,437.0,196.7,0.0
506422,2108.0,437.0,196.7,0.0
506422,2106.0,437.0,196.7,0.0
506434,2121.0,437.0,196.7,0.0
506435,2190.0,437.0,196.7,0.0
506435,2204.0,437.0,196.7,0.0
506448,1974.0,437.0,196.7,0.0
506448,1950.0,437.0,196.7,0.0
506448,1944.0,437.0,196.7,0.0
506448,1930.0,437.0,196.7,0.0
506465,2071.0,438.0,196.7,0.0
506466,2076.0,438.0,196.7,0.0
506466,2084.0,438.0,196.7,0.0
506466,2084.0,438.0,196.7,0.0
506479,2106.0,438.0,196.7,0.0
506480,2095.0,438.0,196.7,0.0
506480,2097.0,438.0,196.7,0.0
506496,2164.0,438.0,196.7,0.0
506496,2184.0,438.0,196.7,0.0
506497,2204.0,438.0,196.7,0.0
506497,2191.0,438.0,196.7,0.0
506510,1911.0,438.0,196.7,0.0
506511,1910.0,438.0,196.7,0.0
506511,1893.0,438.0,196.7,0.0
506524,2075.0,438.0,196.7,0.0
506524,2059.0,438.0,196.7,0.0
506524,2080.0,438.0,196.7,0.0
506524,2094.0,438.0,196.7,0.0
506541,2225.0,439.0,196.7,0.0
506542,2194.0,439.0,196.7,0.0
506542,2182.0,439.0,196.7,0.0
506542,2199.0,439.0,196.7,0.0
506555,2122.0,439.0,196.7,0.0
506555,2197.0,439.0,196.7,0.0
506555,2185.0,439.0,196.7,0.0
506568,1947.0,439.0,196.7,0.0
506568,1951.0,439.0,196.7,0.0
506569,1957.0,439.0,196.7,0.0
506569,1932.0,439.0,196.7,0.0
506585,2094.0,438.0,196.7,0.0
506586,2054.0,438.0,196.7,0.0
506586,2096.0,438.0,196.7,0.0
506586,2109.0,438.0,196.7,0.0
506600,2629.0,438.0,196.7,0.0
506600,2578.0,438.0,196.7,0.0
506600,2580.0,438.0,196.7,0.0
506616,1922.0,438.0,196.7,0.0
506617,1963.0,438.0,196.7,0.0
506617,1906.0,438.0,196.7,0.0
506617,1888.0,438.0,196.7,0.0
506631,1972.0,438.0,196.7,0.0
506631,2026.0,438.0,196.7,0.0
506631,2036.0,438.0,196.7,0.0
506644,2234.0,438.0,196.7,0.0
506644,2144.0,438.0,196.7,0.0
506644,2164.0,438.0,196.7,0.0
506645,2220.0,438.0,196.7,0.0
506661,2199.0,438.0,196.7,0.0
506662,2144.0,438.0,196.7,0.0
506662,2075.0,438.0,196.7,0.0
506662,2120.0,438.0,196.7,0.0
506675,1962.0,438.0,196.7,0.0
506675,1989.0,438.0,196.7,0.0
506675,1938.0,438.0,196.7,0.0
506689,1921.0,438.0,196.7,0.0
506689,1949.0,438.0,196.7,0.0
506689,2019.0,438.0,196.7,0.0
506689,2032.0,438.0,196.7,0.0
506705,1989.0,438.0,196.7,0.0
506706,1936.0,438.0,196.7,0.0
506706,1962.0,438.0,196.7,0.0
506706,2018.0,438.0,196.7,0.0
506719,2172.0,438.0,196.7,0.0
506720,2130.0,438.0,196.7,0.0
506720,2087.0,438.0,196.7,0.0
506736,1995.0,438.0,196.7,0.0
506736,2069.0,438.0,196.7,0.0
506737,2075.0,438.0,196.7,0.0
506737,2030.0,438.0,196.7,0.0
506750,1915.0,438.0,196.7,0.0
506751,1932.0,438.0,196.7,0.0
506751,1978.0,438.0,196.7,0.0
506763,2105.0,437.0,196.7,0.0
506764,2060.0,437.0,196.7,0.0
506764,2034.0,437.0,196.7,0.0
506764,2069.0,437.0,196.7,0.0
506781,2176.0,437.0,196.7,0.0
506781,2160.0,437.0,196.7,0.0
506782,2123.0,437.0,196.7,0.0
506782,2100.0,437.0,196.7,0.0
506794,2013.0,437.0,196.7,0.0
506795,2077.0,437.0,196.7,0.0
506795,2081.0,437.0,196.7,0.0
506808,1943.0,437.0,196.7,0.0
506809,1921.0,437.0,196.7,0.0
506809,1939.0,437.0,196.7,0.0
506809,1971.0,437.0,196.7,0.0
506825,2116.0,437.0,196.7,0.0
506825,2056.0,437.0,196.7,0.0
506825,2044.0,437.0,196.7,0.0
506826,2071.0,437.0,196.7,0.0
506839,2452.0,437.0,196.7,0.0
506839,2441.0,437.0,196.7,0.0
506840,2436.0,437.0,196.7,0.0
506856,1849.0,437.0,196.7,0.0
506856,1911.0,437.0,196.7,0.0
506856,1909.0,437.0,196.7,0.0
506856,1881.0,437.0,196.7,0.0
506870,1972.0,437.0,196.7,0.0
506870,1992.0,437.0,196.7,0.0
506871,2014.0,437.0,196.7,0.0
506883,2091.0,437.0,196.7,0.0
506884,2056.0,437.0,196.7,0.0
506884,2034.0,437.0,196.7,0.0
506884,2069.0,437.0,196.7,0.0
506901,2174.0,437.0,196.7,0.0
506901,2161.0,437.0,196.7,0.0
506901,2125.0,437.0,196.7,0.0
506901,2108.0,437.0,196.7,0.0
506914,2136.0,437.0,196.7,0.0
506914,2032.0,437.0,196.7,0.0
506915,2035.0,437.0,196.7,0.0
506928,1961.0,436.0,196.7,0.0
506929,1932.0,436.0,196.7,0.0
506929,1937.0,436.0,196.7,0.0
506930,1951.0,436.0,196.7,0.0
506946,2077.0,436.0,196.7,0.0
506946,2025.0,436.0,196.7,0.0
506946,2009.0,436.0,196.7,0.0
506947,2024.0,436.0,196.7,0.0
506960,2220.0,436.0,196.7,0.0
506961,2205.0,436.0,196.7,0.0
506961,2196.0,436.0,196.7,0.0
506979,2061.0,436.0,196.7,0.0
506979,2072.0,436.0,196.7,0.0
506979,2087.0,436.0,196.7,0.0
506979,2078.0,436.0,196.7,0.0
506992,1917.0,436.0,196.7,0.0
506992,1925.0,436.0,196.7,0.0
506993,1936.0,436.0,196.7,0.0
507005,2069.0,436.0,196.7,0.0
507006,2028.0,436.0,196.7,0.0
507006,2014.0,436.0,196.7,0.0
507006,2024.0,436.0,196.7,0.0
507023,2222.0,435.0,196.7,0.0
507023,2197.0,435.0,196.7,0.0
507024,2171.0,435.0,196.7,0.0
507024,2174.0,435.0,196.7,0.0
507036,1994.0,435.0,196.7,0.0
507037,2024.0,435.0,196.7,0.0
507037,2015.0,435.0,196.7,0.0
507054,1947.0,434.0,196.7,0.0
507054,1980.0,434.0,196.7,0.0
507054,1983.0,434.0,196.7,0.0
507055,2006.0,434.0,196.7,0.0
507068,1924.0,434.0,196.7,0.0
507069,1946.0,434.0,196.7,0.0
507069,1948.0,434.0,196.7,0.0
507082,2171.0,434.0,196.7,0.0
507082,2104.0,434.0,196.7,0.0
507083,2091.0,434.0,196.7,0.0
507083,2089.0,434.0,196.7,0.0
507100,2157.0,434.0,196.7,0.0
507101,2165.0,434.0,196.7,0.0
507101,2150.0,434.0,196.7,0.0
507101,2168.0,434.0,196.7,0.0
507114,1916.0,434.0,196.7,0.0
507114,2065.0,434.0,196.7,0.0
507114,2092.0,434.0,196.7,0.0
507128,1944.0,434.0,196.7,0.0
507128,1956.0,434.0,196.7,0.0
507128,1950.0,434.0,196.7,0.0
507129,1926.0,434.0,196.7,0.0
507144,2137.0,434.0,196.7,0.0
507145,2112.0,434.0,196.7,0.0
507145,2121.0,434.0,196.7,0.0
507145,2115.0,434.0,196.7,0.0
507159,2192.0,435.0,196.7,0.0
507159,2182.0,435.0,196.7,0.0
507159,2199.0,435.0,196.7,0.0
507175,2039.0,434.0,196.7,0.0
507175,2091.0,434.0,196.7,0.0
507176,2063.0,434.0,196.7,0.0
507176,2060.0,434.0,196.7,0.0
507189,1933.0,434.0,196.7,0.0
507190,1953.0,434.0,196.7,0.0
507190,1946.0,434.0,196.7,0.0
507203,2304.0,434.0,93.3,0.0
507203,2264.0,434.0,93.3,0.0
507203,2271.0,434.0,93.3,0.0
507204,2292.0,434.0,93.3,0.0
507221,2223.0,434.0,93.3,0.0
507222,2192.0,434.0,93.3,0.0
507222,2162.0,434.0,93.3,0.0
507222,2184.0,434.0,93.3,0.0
507235,2241.0,434.0,93.3,0.0
507235,2323.0,434.0,93.3,0.0
507236,2310.0,434.0,93.3,0.0
507249,1855.0,434.0,93.3,0.0
507250,1852.0,434.0,93.3,0.0
507250,1849.0,434.0,93.3,0.0
507250,1815.0,434.0,93.3,0.0
507267,2054.0,434.0,93.3,0.0
507267,1948.0,434.0,93.3,0.0
507267,2061.0,434.0,93.3,0.0
507268,2068.0,434.0,93.3,0.0
507280,2284.0,434.0,93.3,0.0
507281,2250.0,434.0,93.3,0.0
507281,2247.0,434.0,93.3,0.0
507297,1891.0,434.0,93.3,0.0
507298,1922.0,434.0,93.3,0.0
507298,1884.0,434.0,93.3,0.0
507298,1844.0,434.0,93.3,0.0
507311,1976.0,434.0,93.3,0.0
507311,2012.0,434.0,93.3,0.0
507311,2042.0,434.0,93.3,0.0
507324,2203.0,434.0,93.3,0.0
507324,2127.0,434.0,93.3,0.0
507325,2122.0,434.0,93.3,0.0
507325,2135.0,434.0,93.3,0.0
507343,2272.0,433.0,93.3,0.0
507343,2208.0,433.0,93.3,0.0
507343,2167.0,433.0,93.3,0.0
507343,2183.0,433.0,93.3,0.0
507357,2110.0,433.0,93.3,0.0
507357,2142.0,433.0,93.3,0.0
507358,2108.0,433.0,93.3,0.0
507370,1907.0,433.0,93.3,0.0
507371,1915.0,433.0,93.3,0.0
507371,1947.0,433.0,93.3,0.0
507372,1948.0,433.0,93.3,0.0
507388,1864.0,433.0,93.3,0.0
507389,1797.0,433.0,93.3,0.0
507389,1808.0,433.0,93.3,0.0
507389,1828.0,433.0,93.3,0.0
507402,2165.0,432.0,93.3,0.0
507402,2121.0,432.0,93.3,0.0
507403,2125.0,432.0,93.3,0.0
507416,2090.0,432.0,93.3,0.0
507417,2157.0,432.0,93.3,0.0
507417,2163.0,432.0,93.3,0.0
507417,2125.0,432.0,93.3,0.0
507433,1901.0,432.0,93.3,0.0
507434,1934.0,432.0,93.3,0.0
507434,1946.0,432.0,93.3,0.0
507434,1926.0,432.0,93.3,0.0
507448,1962.0,433.0,93.3,0.0
507448,1962.0,433.0,93.3,0.0
507449,1994.0,433.0,93.3,0.0
507449,1995.0,433.0,93.3,0.0
507465,1978.0,433.0,93.3,0.0
507465,1975.0,433.0,93.3,0.0
507466,1961.0,433.0,93.3,0.0
507466,2003.0,433.0,93.3,0.0
507479,2288.0,432.0,93.3,0.0
507480,2272.0,432.0,93.3,0.0
507480,2248.0,432.0,93.3,0.0
507493,1878.0,432.0,93.3,0.0
507493,1915.0,432.0,93.3,0.0
507493,1907.0,432.0,93.3,0.0
507493,1900.0,432.0,93.3,0.0
507510,1908.0,432.0,93.3,0.0
507510,1915.0,432.0,93.3,0.0
507511,1936.0,432.0,93.3,0.0
507511,1922.0,432.0,93.3,0.0
507524,2191.0,432.0,93.3,0.0
507524,2151.0,432.0,93.3,0.0
507525,2163.0,432.0,93.3,0.0
507538,2053.0,431.0,93.3,0.0
507539,2057.0,431.0,93.3,0.0
507539,2029.0,431.0,93.3,0.0
507539,2017.0,431.0,93.3,0.0
507556,2204.0,431.0,93.3,0.0
507556,2268.0,431.0,93.3,0.0
507557,2260.0,431.0,93.3,0.0
507557,2239.0,431.0,93.3,0.0
507569,1876.0,431.0,93.3,0.0
507570,1886.0,431.0,93.3,0.0
507570,1914.0,431.0,93.3,0.0
507587,2025.0,430.0,93.3,0.0
507587,1993.0,430.0,93.3,0.0
507588,1987.0,430.0,93.3,0.0
507588,2012.0,430.0,93.3,0.0
507600,2001.0,430.0,93.3,0.0
507601,1991.0,430.0,93.3,0.0
507601,1968.0,430.0,93.3,0.0
507613,1866.0,430.0,93.3,0.0
507614,2078.0,430.0,93.3,0.0
507614,2084.0,430.0,93.3,0.0
507614,2088.0,430.0,93.3,0.0
507631,1868.0,429.0,93.3,0.0
507631,1872.0,429.0,93.3,0.0
507632,1893.0,429.0,93.3,0.0
507632,1868.0,429.0,93.3,0.0
507644,2133.0,429.0,93.3,0.0
507645,2103.0,429.0,93.3,0.0
507645,2108.0,429.0,93.3,0.0
507658,1857.0,428.0,93.3,0.0
507659,1867.0,428.0,93.3,0.0
507659,1840.0,428.0,93.3,0.0
507659,1830.0,428.0,93.3,0.0
507676,2096.0,427.0,93.3,0.0
507677,2114.0,427.0,93.3,0.0
507677,2136.0,427.0,93.3,0.0
507677,2117.0,427.0,93.3,0.0
507690,1962.0,427.0,93.3,0.0
507690,1948.0,427.0,93.3,0.0
507690,1942.0,427.0,93.3,0.0
507708,2009.0,427.0,93.3,0.0
507708,1902.0,427.0,93.3,0.0
507708,1857.0,427.0,93.3,0.0
507708,1830.0,427.0,93.3,0.0
507721,1985.0,426.0,93.3,0.0
507721,2008.0,426.0,93.3,0.0
507722,2018.0,426.0,93.3,0.0
507735,2118.0,426.0,93.3,0.0
507736,2136.0,426.0,93.3,0.0
507736,2148.0,426.0,93.3,0.0
507736,2155.0,426.0,93.3,0.0
507752,1889.0,426.0,93.3,0.0
507752,1899.0,426.0,93.3,0.0
507752,1910.0,426.0,93.3,0.0
507752,1924.0,426.0,93.3,0.0
507766,2053.0,425.0,93.3,0.0
507766,2020.0,425.0,93.3,0.0
507767,2010.0,425.0,93.3,0.0
507782,2094.0,425.0,93.3,0.0
507783,2099.0,425.0,93.3,0.0
507783,2090.0,425.0,93.3,0.0
507783,2085.0,425.0,93.3,0.0
507797,1930.0,425.0,93.3,0.0
507797,1936.0,425.0,93.3,0.0
507798,1952.0,425.0,93.3,0.0
507798,1928.0,425.0,93.3,0.0
507810,1978.0,424.0,93.3,0.0
507811,1998.0,424.0,93.3,0.0
507811,1991.0,424.0,93.3,0.0
507829,1909.0,424.0,93.3,0.0
507829,1904.0,424.0,93.3,0.0
507830,1895.0,424.0,93.3,0.0
507830,1902.0,424.0,93.3,0.0
507842,2038.0,424.0,93.3,0.0
507843,2064.0,424.0,93.3,0.0
507843,2038.0,424.0,93.3,0.0
507857,1936.0,424.0,93.3,0.0
507857,1939.0,424.0,93.3,0.0
507857,1937.0,424.0,93.3,0.0
507857,1925.0,424.0,93.3,0.0
507873,2018.0,424.0,93.3,0.0
507874,2092.0,424.0,93.3,0.0
507874,2119.0,424.0,93.3,0.0
507874,2135.0,424.0,93.3,0.0
507887,1945.0,423.0,93.3,0.0
507888,1917.0,423.0,93.3,0.0
507888,1912.0,423.0,93.3,0.0
507901,2099.0,423.0,93.3,0.0
507901,2098.0,423.0,93.3,0.0
507901,2088.0,423.0,93.3,0.0
507901,2125.0,423.0,93.3,0.0
507918,2087.0,423.0,93.3,0.0
507919,2082.0,423.0,93.3,0.0
507919,2078.0,423.0,93.3,0.0
507919,2085.0,423.0,93.3,0.0
507931,1936.0,422.0,93.3,0.0
507932,1907.0,422.0,93.3,0.0
507932,1907.0,422.0,93.3,0.0
507949,1928.0,423.0,93.3,0.0
507949,1927.0,423.0,93.3,0.0
507950,1934.0,423.0,93.3,0.0
507950,1935.0,423.0,93.3,0.0
507962,2136.0,423.0,93.3,0.0
507963,2121.0,423.0,93.3,0.0
507963,2124.0,423.0,93.3,0.0
507976,2117.0,423.0,93.3,0.0
507977,2134.0,423.0,93.3,0.0
507977,2118.0,423.0,93.3,0.0
507977,2105.0,423.0,93.3,0.0
507994,2978.0,423.0,196.7,0.0
507995,3255.0,423.0,196.7,0.0
507995,3453.0,423.0,196.7,0.0
507996,3826.0,423.0,196.7,0.0
508009,1567.0,423.0,196.7,0.0
508009,1484.0,423.0,196.7,0.0
508009,1388.0,423.0,196.7,0.0
508026,2343.0,422.0,196.7,0.0
508027,2336.0,422.0,196.7,0.0
508027,2433.0,422.0,196.7,0.0
508027,2477.0,422.0,196.7,0.0
508040,1921.0,422.0,196.7,0.0
508040,1844.0,422.0,196.7,0.0
508040,1830.0,422.0,196.7,0.0
508053,1992.0,422.0,196.7,0.0
508053,2036.0,422.0,196.7,0.0
508053,2018.0,422.0,196.7,0.0
508054,1932.0,422.0,196.7,0.0
508071,1909.0,422.0,196.7,0.0
508072,1977.0,422.0,196.7,0.0
508072,2033.0,422.0,196.7,0.0
508072,1987.0,422.0,196.7,0.0
508086,1959.0,422.0,196.7,0.0
508086,1943.0,422.0,196.7,0.0
508086,2003.0,422.0,196.7,0.0
508099,2074.0,422.0,196.7,0.0
508099,2059.0,422.0,196.7,0.0
508099,1986.0,422.0,196.7,0.0
508100,2008.0,422.0,196.7,0.0
508116,2086.0,422.0,196.7,0.0
508117,2138.0,422.0,196.7,0.0
508117,2109.0,422.0,196.7,0.0
508117,2054.0,422.0,196.7,0.0
508130,1898.0,422.0,196.7,0.0
508130,1944.0,422.0,196.7,0.0
508131,1966.0,422.0,196.7,0.0
508144,2069.0,422.0,196.7,0.0
508145,2008.0,422.0,196.7,0.0
508145,2006.0,422.0,196.7,0.0
508145,2051.0,422.0,196.7,0.0
508161,2088.0,422.0,196.7,0.0
508162,2046.0,422.0,196.7,0.0
508162,2006.0,422.0,196.7,0.0
508162,2013.0,422.0,196.7,0.0
508176,2320.0,422.0,196.7,0.0
508176,2372.0,422.0,196.7,0.0
508176,2380.0,422.0,196.7,0.0
508192,1764.0,422.0,196.7,0.0
508193,1759.0,422.0,196.7,0.0
508193,1796.0,422.0,196.7,0.0
508193,1794.0,422.0,196.7,0.0
508207,2013.0,422.0,196.7,0.0
508207,2021.0,422.0,196.7,0.0
508207,2033.0,422.0,196.7,0.0
508220,2037.0,422.0,196.7,0.0
508220,2035.0,422.0,196.7,0.0
508220,2025.0,422.0,196.7,0.0
508221,2002.0,422.0,196.7,0.0
508237,2008.0,422.0,196.7,0.0
508238,2029.0,422.0,196.7,0.0
508238,2019.0,422.0,196.7,0.0
508238,2007.0,422.0,196.7,0.0
508251,1940.0,422.0,196.7,0.0
508251,1950.0,422.0,196.7,0.0
508251,1969.0,422.0,196.7,0.0
508265,2016.0,423.0,196.7,0.0
508265,1968.0,423.0,196.7,0.0
508265,1986.0,423.0,196.7,0.0
508265,2002.0,423.0,196.7,0.0
508281,2114.0,423.0,196.7,0.0
508282,2104.0,423.0,196.7,0.0
508282,2082.0,423.0,196.7,0.0
508282,2073.0,423.0,196.7,0.0
508296,2257.0,423.0,196.7,0.0
508296,2298.0,423.0,196.7,0.0
508297,2308.0,423.0,196.7,0.0
508315,1935.0,423.0,196.7,0.0
508315,1953.0,423.0,196.7,0.0
508315,1984.0,423.0,196.7,0.0
508315,1989.0,423.0,196.7,0.0
508328,1990.0,423.0,196.7,0.0
508328,1994.0,423.0,196.7,0.0
508329,1989.0,423.0,196.7,0.0
508341,2173.0,423.0,196.7,0.0
508342,2150.0,423.0,196.7,0.0
508342,2162.0,423.0,196.7,0.0
508359,2175.0,423.0,196.7,0.0
508359,2184.0,423.0,196.7,0.0
508359,2168.0,423.0,196.7,0.0
508359,2160.0,423.0,196.7,0.0
508373,1913.0,423.0,196.7,0.0
508373,1973.0,423.0,196.7,0.0
508373,1975.0,423.0,196.7,0.0
508389,1923.0,423.0,196.7,0.0
508390,1925.0,423.0,196.7,0.0
508390,1925.0,423.0,196.7,0.0
508390,1932.0,423.0,196.7,0.0
508404,2109.0,424.0,196.7,0.0
508404,2069.0,424.0,196.7,0.0
508405,2080.0,424.0,196.7,0.0
508417,2091.0,424.0,196.7,0.0
508418,2106.0,424.0,196.7,0.0
508418,2102.0,424.0,196.7,0.0
508418,2076.0,424.0,196.7,0.0
508436,2027.0,424.0,196.7,0.0
508436,2066.0,424.0,196.7,0.0
508436,2077.0,424.0,196.7,0.0
508437,2069.0,424.0,196.7,0.0
508449,1939.0,424.0,196.7,0.0
508450,1931.0,424.0,196.7,0.0
508451,1940.0,424.0,196.7,0.0
508464,2074.0,424.0,196.7,0.0
508465,2044.0,424.0,196.7,0.0
508465,2028.0,424.0,196.7,0.0
508465,2035.0,424.0,196.7,0.0
508481,2153.0,424.0,196.7,0.0
508481,2136.0,424.0,196.7,0.0
508482,2128.0,424.0,196.7,0.0
508482,2121.0,424.0,196.7,0.0
508495,2170.0,424.0,196.7,0.0
508496,2241.0,424.0,196.7,0.0
508496,2229.0,424.0,196.7,0.0
508509,1927.0,424.0,196.7,0.0
508509,1913.0,424.0,196.7,0.0
508509,1913.0,424.0,196.7,0.0
508510,1889.0,424.0,196.7,0.0
