timestamp_ms,ecg_filtered,ppg_dc_ir,ecg_bpm,spo2_pct
465379,1964.0,408.0,144.8,0.0
465383,2071.0,408.0,144.8,0.0
465387,2008.0,408.0,144.8,0.0
465391,1871.0,408.0,144.8,0.0
465395,1906.0,408.0,144.8,0.0
465399,2023.0,408.0,144.8,0.0
465402,2122.0,408.0,144.8,0.0
465411,1555.0,407.0,144.8,0.0
465412,1907.0,407.0,144.8,0.0
465415,1996.0,407.0,144.8,0.0
465419,2036.0,407.0,144.8,0.0
465423,2118.0,407.0,144.8,0.0
465427,2081.0,407.0,144.8,0.0
465441,3025.0,407.0,144.8,0.0
465443,2705.0,407.0,144.8,0.0
465443,2193.0,407.0,144.8,0.0
465444,2169.0,407.0,144.8,0.0
465457,2350.0,406.0,144.8,0.0
465457,2703.0,406.0,144.8,0.0
465458,2452.0,406.0,144.8,0.0
465459,2127.0,406.0,144.8,0.0
465474,1548.0,406.0,144.8,0.0
465474,2043.0,406.0,144.8,0.0
465475,2322.0,406.0,144.8,0.0
465475,2070.0,406.0,144.8,0.0
465488,1645.0,405.0,144.8,0.0
465489,1596.0,405.0,144.8,0.0
465489,1959.0,405.0,144.8,0.0
465501,3099.0,405.0,151.7,0.0
465502,2845.0,405.0,151.7,0.0
465502,2513.0,405.0,151.7,0.0
465503,2534.0,405.0,151.7,0.0
465519,2805.0,404.0,151.7,0.0
465520,3010.0,404.0,151.7,0.0
465520,2784.0,404.0,151.7,0.0
465520,2504.0,404.0,151.7,0.0
465532,1577.0,404.0,151.7,0.0
465533,1935.0,404.0,151.7,0.0
465533,2063.0,404.0,151.7,0.0
465550,1583.0,403.0,151.7,0.0
465551,1281.0,403.0,151.7,0.0
465551,1349.0,403.0,151.7,0.0
465551,1637.0,403.0,151.7,0.0
465564,2605.0,403.0,151.7,0.0
465564,2324.0,403.0,151.7,0.0
465564,2084.0,403.0,151.7,0.0
465578,2111.0,403.0,151.7,0.0
465579,2425.0,403.0,151.7,0.0
465579,2510.0,403.0,151.7,0.0
465579,2321.0,403.0,151.7,0.0
465595,1524.0,403.0,151.7,0.0
465595,1722.0,403.0,151.7,0.0
465596,1935.0,403.0,151.7,0.0
465596,2021.0,403.0,151.7,0.0
465609,1403.0,402.0,151.7,0.0
465610,1221.0,402.0,151.7,0.0
465610,1285.0,402.0,151.7,0.0
465627,1921.0,401.0,151.7,0.0
465627,1871.0,401.0,151.7,0.0
465627,1694.0,401.0,151.7,0.0
465628,1537.0,401.0,151.7,0.0
465640,2304.0,401.0,151.7,0.0
465641,2465.0,401.0,151.7,0.0
465641,2528.0,401.0,151.7,0.0
465653,1498.0,401.0,151.7,0.0
465654,1460.0,401.0,151.7,0.0
465654,1492.0,401.0,151.7,0.0
465672,1398.0,401.0,151.7,0.0
465672,1480.0,401.0,151.7,0.0
465672,1452.0,401.0,151.7,0.0
465673,1375.0,401.0,151.7,0.0
465686,1897.0,400.0,151.7,0.0
465686,1905.0,400.0,151.7,0.0
465687,1948.0,400.0,151.7,0.0
465699,2420.0,400.0,151.7,0.0
465700,2350.0,400.0,151.7,0.0
465700,2359.0,400.0,151.7,0.0
465700,2462.0,400.0,151.7,0.0
465717,2186.0,400.0,151.7,0.0
465718,2208.0,400.0,151.7,0.0
465718,2124.0,400.0,151.7,0.0
465718,2139.0,400.0,151.7,0.0
465731,1392.0,400.0,151.7,0.0
465731,1478.0,400.0,151.7,0.0
465731,1410.0,400.0,151.7,0.0
465748,1546.0,399.0,151.7,0.0
465749,1466.0,399.0,151.7,0.0
465749,1560.0,399.0,151.7,0.0
465749,1622.0,399.0,151.7,0.0
465762,2512.0,399.0,151.7,0.0
465762,2369.0,399.0,151.7,0.0
465762,2370.0,399.0,151.7,0.0
465776,2013.0,399.0,151.7,0.0
465776,2153.0,399.0,151.7,0.0
465776,2068.0,399.0,151.7,0.0
465777,1966.0,399.0,151.7,0.0
465793,1519.0,399.0,151.7,0.0
465794,1756.0,399.0,151.7,0.0
465794,1823.0,399.0,151.7,0.0
465794,1744.0,399.0,151.7,0.0
465808,1604.0,398.0,151.7,0.0
465808,1589.0,398.0,151.7,0.0
465808,1686.0,398.0,151.7,0.0
465821,2521.0,398.0,156.0,0.0
465821,2412.0,398.0,156.0,0.0
465822,2307.0,398.0,156.0,0.0
465822,2385.0,398.0,156.0,0.0
465839,2394.0,398.0,156.0,0.0
465839,2453.0,398.0,156.0,0.0
465839,2351.0,398.0,156.0,0.0
465839,2287.0,398.0,156.0,0.0
465852,1385.0,398.0,156.0,0.0
465852,1552.0,398.0,156.0,0.0
465853,1540.0,398.0,156.0,0.0
465866,1949.0,398.0,156.0,0.0
465867,1814.0,398.0,156.0,0.0
465867,1870.0,398.0,156.0,0.0
465867,1952.0,398.0,156.0,0.0
465883,2679.0,398.0,156.0,0.0
465884,2500.0,398.0,156.0,0.0
465884,2458.0,398.0,156.0,0.0
465884,2576.0,398.0,156.0,0.0
465898,3017.0,398.0,156.0,0.0
465898,3022.0,398.0,156.0,0.0
465898,2918.0,398.0,156.0,0.0
465915,1885.0,398.0,156.0,0.0
465916,2061.0,398.0,156.0,0.0
465916,2128.0,398.0,156.0,0.0
465916,2069.0,398.0,156.0,0.0
465929,1294.0,398.0,156.0,0.0
465929,1287.0,398.0,156.0,0.0
465929,1363.0,398.0,156.0,0.0
465942,2630.0,398.0,156.0,0.0
465942,2504.0,398.0,156.0,0.0
465942,2478.0,398.0,156.0,0.0
465943,2525.0,398.0,156.0,0.0
465959,2446.0,399.0,156.0,0.0
465960,2461.0,399.0,156.0,0.0
465960,2393.0,399.0,156.0,0.0
465960,2376.0,399.0,156.0,0.0
465973,1561.0,399.0,156.0,0.0
465973,1697.0,399.0,156.0,0.0
465974,1684.0,399.0,156.0,0.0
465987,1779.0,399.0,156.0,0.0
465987,1680.0,399.0,156.0,0.0
465988,1744.0,399.0,156.0,0.0
465988,1785.0,399.0,156.0,0.0
466005,2277.0,399.0,156.0,0.0
466006,2080.0,399.0,156.0,0.0
466006,2047.0,399.0,156.0,0.0
466006,2143.0,399.0,156.0,0.0
466019,2475.0,399.0,156.0,0.0
466019,2461.0,399.0,156.0,0.0
466019,2399.0,399.0,156.0,0.0
466037,2132.0,400.0,156.0,0.0
466037,2300.0,400.0,156.0,0.0
466037,2349.0,400.0,156.0,0.0
466037,2319.0,400.0,156.0,0.0
466050,1570.0,400.0,156.0,0.0
466050,1587.0,400.0,156.0,0.0
466051,1644.0,400.0,156.0,0.0
466063,2707.0,400.0,156.0,0.0
466064,2593.0,400.0,156.0,0.0
466064,2552.0,400.0,156.0,0.0
466081,2796.0,399.0,156.0,0.0
466081,2849.0,399.0,156.0,0.0
466081,2826.0,399.0,156.0,0.0
466082,2792.0,399.0,156.0,0.0
466095,2123.0,399.0,156.0,0.0
466095,2250.0,399.0,156.0,0.0
466096,2303.0,399.0,156.0,0.0
466112,1712.0,400.0,156.0,0.0
466112,1711.0,400.0,156.0,0.0
466112,1731.0,400.0,156.0,0.0
466112,1770.0,400.0,156.0,0.0
466126,2186.0,400.0,156.0,0.0
466126,2074.0,400.0,156.0,0.0
466126,2028.0,400.0,156.0,0.0
466139,2406.0,400.0,164.7,0.0
466139,2455.0,400.0,164.7,0.0
466140,2478.0,400.0,164.7,0.0
466140,2485.0,400.0,164.7,0.0
466158,2150.0,400.0,164.7,0.0
466158,2208.0,400.0,164.7,0.0
466158,2224.0,400.0,164.7,0.0
466158,2254.0,400.0,164.7,0.0
466171,1359.0,400.0,164.7,0.0
466171,1382.0,400.0,164.7,0.0
466172,1361.0,400.0,164.7,0.0
466185,2039.0,401.0,164.7,0.0
466186,1959.0,401.0,164.7,0.0
466186,1978.0,401.0,164.7,0.0
466186,1974.0,401.0,164.7,0.0
466202,2416.0,401.0,164.7,0.0
466202,2348.0,401.0,164.7,0.0
466203,2369.0,401.0,164.7,0.0
466203,2423.0,401.0,164.7,0.0
466216,2062.0,401.0,164.7,0.0
466217,2043.0,401.0,164.7,0.0
466217,2010.0,401.0,164.7,0.0
466234,1557.0,401.0,164.7,0.0
466234,1697.0,401.0,164.7,0.0
466234,1749.0,401.0,164.7,0.0
466235,1712.0,401.0,164.7,0.0
466247,1685.0,401.0,164.7,0.0
466247,1631.0,401.0,164.7,0.0
466248,1674.0,401.0,164.7,0.0
466260,2453.0,401.0,164.7,0.0
466261,2411.0,401.0,164.7,0.0
466261,2388.0,401.0,164.7,0.0
466279,2329.0,401.0,164.7,0.0
466279,2427.0,401.0,164.7,0.0
466279,2432.0,401.0,164.7,0.0
466279,2369.0,401.0,164.7,0.0
466292,1398.0,402.0,164.7,0.0
466293,1508.0,402.0,164.7,0.0
466293,1555.0,402.0,164.7,0.0
466306,1906.0,401.0,164.7,0.0
466307,1770.0,401.0,164.7,0.0
466307,1769.0,401.0,164.7,0.0
466307,1795.0,401.0,164.7,0.0
466324,2361.0,402.0,164.7,0.0
466324,2228.0,402.0,164.7,0.0
466325,2173.0,402.0,164.7,0.0
466325,2182.0,402.0,164.7,0.0
466337,2215.0,402.0,164.7,0.0
466338,2259.0,402.0,164.7,0.0
466338,2228.0,402.0,164.7,0.0
466355,1769.0,402.0,164.7,0.0
466355,1889.0,402.0,164.7,0.0
466355,1956.0,402.0,164.7,0.0
466356,1944.0,402.0,164.7,0.0
466368,1563.0,402.0,164.7,0.0
466369,1516.0,402.0,164.7,0.0
466369,1510.0,402.0,164.7,0.0
466381,2588.0,402.0,164.7,0.0
466382,2509.0,402.0,164.7,0.0
466382,2504.0,402.0,164.7,0.0
466382,2532.0,402.0,164.7,0.0
466400,2535.0,402.0,164.7,0.0
466401,2535.0,402.0,164.7,0.0
466401,2505.0,402.0,164.7,0.0
466401,2509.0,402.0,164.7,0.0
466415,1781.0,403.0,164.7,0.0
466415,1882.0,403.0,164.7,0.0
466415,1883.0,403.0,164.7,0.0
466428,1554.0,403.0,164.7,0.0
466428,1500.0,403.0,164.7,0.0
466429,1516.0,403.0,164.7,0.0
466429,1517.0,403.0,164.7,0.0
466446,1996.0,403.0,164.7,0.0
466446,1849.0,403.0,164.7,0.0
466446,1865.0,403.0,164.7,0.0
466447,1886.0,403.0,164.7,0.0
466459,2427.0,403.0,186.9,0.0
466459,2389.0,403.0,186.9,0.0
466460,2379.0,403.0,186.9,0.0
466473,1632.0,403.0,186.9,0.0
466473,1754.0,403.0,186.9,0.0
466474,1748.0,403.0,186.9,0.0
466474,1715.0,403.0,186.9,0.0
466490,2044.0,403.0,186.9,0.0
466490,2080.0,403.0,186.9,0.0
466491,2168.0,403.0,186.9,0.0
466491,2138.0,403.0,186.9,0.0
466504,2786.0,404.0,186.9,0.0
466505,2665.0,404.0,186.9,0.0
466505,2706.0,404.0,186.9,0.0
466521,2346.0,404.0,186.9,0.0
466521,2314.0,404.0,186.9,0.0
466522,2208.0,404.0,186.9,0.0
466522,2177.0,404.0,186.9,0.0
466535,2026.0,405.0,186.9,0.0
466536,2183.0,405.0,186.9,0.0
466536,2161.0,405.0,186.9,0.0
466548,1443.0,405.0,186.9,0.0
466549,1368.0,405.0,186.9,0.0
466549,1414.0,405.0,186.9,0.0
466549,1459.0,405.0,186.9,0.0
466566,2000.0,405.0,186.9,0.0
466566,1830.0,405.0,186.9,0.0
466567,1794.0,405.0,186.9,0.0
466567,1845.0,405.0,186.9,0.0
466579,2483.0,405.0,186.9,0.0
466580,2447.0,405.0,186.9,0.0
466580,2411.0,405.0,186.9,0.0
466597,2182.0,406.0,186.9,0.0
466597,2300.0,406.0,186.9,0.0
466597,2345.0,406.0,186.9,0.0
466598,2312.0,406.0,186.9,0.0
466610,1420.0,406.0,186.9,0.0
466611,1461.0,406.0,186.9,0.0
466611,1499.0,406.0,186.9,0.0
466624,2394.0,406.0,186.9,0.0
466625,2267.0,406.0,186.9,0.0
466625,2258.0,406.0,186.9,0.0
466625,2292.0,406.0,186.9,0.0
466643,2622.0,406.0,186.9,0.0
466643,2514.0,406.0,186.9,0.0
466644,2448.0,406.0,186.9,0.0
466644,2459.0,406.0,186.9,0.0
466656,2380.0,406.0,186.9,0.0
466657,2476.0,406.0,186.9,0.0
466657,2454.0,406.0,186.9,0.0
466670,1668.0,406.0,186.9,0.0
466670,1693.0,406.0,186.9,0.0
466670,1721.0,406.0,186.9,0.0
466670,1702.0,406.0,186.9,0.0
466687,2036.0,406.0,186.9,0.0
466688,1931.0,406.0,186.9,0.0
466688,1944.0,406.0,186.9,0.0
466688,1962.0,406.0,186.9,0.0
466701,2794.0,406.0,186.9,0.0
466701,2742.0,406.0,186.9,0.0
466701,2753.0,406.0,186.9,0.0
466715,2087.0,405.0,186.9,0.0
466715,2182.0,405.0,186.9,0.0
466715,2140.0,405.0,186.9,0.0
466715,2083.0,405.0,186.9,0.0
466732,1503.0,406.0,186.9,0.0
466733,1692.0,406.0,186.9,0.0
466733,1712.0,406.0,186.9,0.0
466733,1650.0,406.0,186.9,0.0
466746,1864.0,406.0,186.9,0.0
466746,1824.0,406.0,186.9,0.0
466746,1882.0,406.0,186.9,0.0
466763,2382.0,406.0,186.9,0.0
466764,2219.0,406.0,186.9,0.0
466764,2141.0,406.0,186.9,0.0
466764,2165.0,406.0,186.9,0.0
466777,2162.0,406.0,186.9,0.0
466777,2226.0,406.0,186.9,0.0
466777,2168.0,406.0,186.9,0.0
466790,1278.0,406.0,186.9,0.0
466791,1329.0,406.0,186.9,0.0
466791,1383.0,406.0,186.9,0.0
466791,1350.0,406.0,186.9,0.0
466808,1466.0,407.0,186.9,0.0
466808,1404.0,407.0,186.9,0.0
466809,1450.0,407.0,186.9,0.0
466809,1472.0,407.0,186.9,0.0
466822,2399.0,407.0,181.7,0.0
466823,2278.0,407.0,181.7,0.0
466823,2275.0,407.0,181.7,0.0
466839,2409.0,407.0,181.7,0.0
466839,2475.0,407.0,181.7,0.0
466840,2428.0,407.0,181.7,0.0
466840,2358.0,407.0,181.7,0.0
466853,1540.0,408.0,181.7,0.0
466854,1714.0,408.0,181.7,0.0
466854,1776.0,408.0,181.7,0.0
466866,1823.0,408.0,181.7,0.0
466867,1692.0,408.0,181.7,0.0
466867,1711.0,408.0,181.7,0.0
466867,1760.0,408.0,181.7,0.0
466885,2150.0,408.0,181.7,0.0
466885,1970.0,408.0,181.7,0.0
466886,1897.0,408.0,181.7,0.0
466886,1924.0,408.0,181.7,0.0
466898,2407.0,408.0,181.7,0.0
466899,2417.0,408.0,181.7,0.0
466899,2358.0,408.0,181.7,0.0
466912,1485.0,409.0,181.7,0.0
466913,1619.0,409.0,181.7,0.0
466913,1661.0,409.0,181.7,0.0
466913,1640.0,409.0,181.7,0.0
466929,1395.0,409.0,181.7,0.0
466930,1376.0,409.0,181.7,0.0
466930,1417.0,409.0,181.7,0.0
466930,1421.0,409.0,181.7,0.0
466943,2309.0,410.0,181.7,0.0
466944,2219.0,410.0,181.7,0.0
466944,2243.0,410.0,181.7,0.0
466957,2267.0,410.0,181.7,0.0
466957,2325.0,410.0,181.7,0.0
466957,2269.0,410.0,181.7,0.0
466957,2230.0,410.0,181.7,0.0
466974,1844.0,410.0,181.7,0.0
466975,2019.0,410.0,181.7,0.0
466975,1994.0,410.0,181.7,0.0
466975,1953.0,410.0,181.7,0.0
466988,1510.0,411.0,181.7,0.0
466988,1511.0,411.0,181.7,0.0
466988,1538.0,411.0,181.7,0.0
467005,2084.0,411.0,181.7,0.0
467006,1908.0,411.0,181.7,0.0
467006,1882.0,411.0,181.7,0.0
467006,1918.0,411.0,181.7,0.0
467019,2417.0,412.0,181.7,0.0
467019,2394.0,412.0,181.7,0.0
467019,2355.0,412.0,181.7,0.0
467033,1545.0,412.0,181.7,0.0
467033,1686.0,412.0,181.7,0.0
467033,1680.0,412.0,181.7,0.0
467033,1645.0,412.0,181.7,0.0
467049,1433.0,413.0,181.7,0.0
467050,1477.0,413.0,181.7,0.0
467050,1535.0,413.0,181.7,0.0
467050,1507.0,413.0,181.7,0.0
467064,2862.0,413.0,181.7,0.0
467064,2762.0,413.0,181.7,0.0
467064,2832.0,413.0,181.7,0.0
467081,2877.0,414.0,181.7,0.0
467082,2785.0,414.0,181.7,0.0
467082,2643.0,414.0,181.7,0.0
467082,2588.0,414.0,181.7,0.0
467094,1575.0,414.0,181.7,0.0
467095,1775.0,414.0,181.7,0.0
467095,1734.0,414.0,181.7,0.0
467108,1662.0,414.0,181.7,0.0
467108,1573.0,414.0,181.7,0.0
467108,1671.0,414.0,181.7,0.0
467126,1970.0,415.0,181.7,0.0
467127,1823.0,415.0,181.7,0.0
467127,1650.0,415.0,181.7,0.0
467127,1610.0,415.0,181.7,0.0
467140,2540.0,416.0,182.0,0.0
467141,2617.0,416.0,182.0,0.0
467141,2578.0,416.0,182.0,0.0
467154,1732.0,416.0,182.0,0.0
467154,1781.0,416.0,182.0,0.0
467154,1855.0,416.0,182.0,0.0
467154,1915.0,416.0,182.0,0.0
467171,1532.0,416.0,182.0,0.0
467172,1550.0,416.0,182.0,0.0
467172,1554.0,416.0,182.0,0.0
467172,1611.0,416.0,182.0,0.0
467185,2216.0,417.0,182.0,0.0
467185,2106.0,417.0,182.0,0.0
467186,2064.0,417.0,182.0,0.0
467198,2469.0,417.0,182.0,0.0
467198,2510.0,417.0,182.0,0.0
467199,2560.0,417.0,182.0,0.0
467216,2312.0,417.0,182.0,0.0
467217,2357.0,417.0,182.0,0.0
467217,2357.0,417.0,182.0,0.0
467217,2385.0,417.0,182.0,0.0
467231,1651.0,418.0,182.0,0.0
467231,1687.0,418.0,182.0,0.0
467232,1684.0,418.0,182.0,0.0
467248,1790.0,418.0,182.0,0.0
467248,1731.0,418.0,182.0,0.0
467249,1777.0,418.0,182.0,0.0
467249,1787.0,418.0,182.0,0.0
467262,2727.0,418.0,182.0,0.0
467263,2631.0,418.0,182.0,0.0
467263,2650.0,418.0,182.0,0.0
467275,2364.0,418.0,182.0,0.0
467276,2448.0,418.0,182.0,0.0
467276,2387.0,418.0,182.0,0.0
467276,2344.0,418.0,182.0,0.0
467293,1790.0,418.0,182.0,0.0
467294,1952.0,418.0,182.0,0.0
467294,1976.0,418.0,182.0,0.0
467294,1915.0,418.0,182.0,0.0
467307,1734.0,419.0,182.0,0.0
467307,1704.0,419.0,182.0,0.0
467307,1753.0,419.0,182.0,0.0
467321,2528.0,419.0,182.0,0.0
467321,2430.0,419.0,182.0,0.0
467321,2401.0,419.0,182.0,0.0
467321,2478.0,419.0,182.0,0.0
467338,2336.0,419.0,182.0,0.0
467338,2357.0,419.0,182.0,0.0
467339,2287.0,419.0,182.0,0.0
467339,2279.0,419.0,182.0,0.0
467352,1456.0,419.0,182.0,0.0
467353,1597.0,419.0,182.0,0.0
467353,1570.0,419.0,182.0,0.0
467371,1282.0,419.0,182.0,0.0
467371,1298.0,419.0,182.0,0.0
467371,1422.0,419.0,182.0,0.0
467371,1504.0,419.0,182.0,0.0
467384,2185.0,419.0,182.0,0.0
467385,1988.0,419.0,182.0,0.0
467385,1964.0,419.0,182.0,0.0
467397,2266.0,419.0,182.0,0.0
467398,2358.0,419.0,182.0,0.0
467398,2311.0,419.0,182.0,0.0
467398,2243.0,419.0,182.0,0.0
467415,1844.0,419.0,182.0,0.0
467415,2021.0,419.0,182.0,0.0
467415,2072.0,419.0,182.0,0.0
467416,2021.0,419.0,182.0,0.0
467428,1431.0,419.0,182.0,0.0
467429,1414.0,419.0,182.0,0.0
467429,1469.0,419.0,182.0,0.0
467446,1959.0,418.0,182.0,0.0
467446,1802.0,418.0,182.0,0.0
467446,1730.0,418.0,182.0,0.0
467447,1744.0,418.0,182.0,0.0
467460,2516.0,418.0,181.7,0.0
467460,2503.0,418.0,181.7,0.0
467461,2465.0,418.0,181.7,0.0
467473,1707.0,418.0,181.7,0.0
467474,1829.0,418.0,181.7,0.0
467474,1864.0,418.0,181.7,0.0
467474,1856.0,418.0,181.7,0.0
467492,1501.0,418.0,181.7,0.0
467493,1590.0,418.0,181.7,0.0
467493,1651.0,418.0,181.7,0.0
467493,1676.0,418.0,181.7,0.0
467506,1954.0,418.0,181.7,0.0
467506,1773.0,418.0,181.7,0.0
467507,1728.0,418.0,181.7,0.0
467520,2577.0,418.0,181.7,0.0
467521,2545.0,418.0,181.7,0.0
467521,2526.0,418.0,181.7,0.0
467521,2533.0,418.0,181.7,0.0
467537,2324.0,418.0,181.7,0.0
467538,2376.0,418.0,181.7,0.0
467538,2364.0,418.0,181.7,0.0
467538,2362.0,418.0,181.7,0.0
467552,1444.0,417.0,181.7,0.0
467552,1560.0,417.0,181.7,0.0
467552,1545.0,417.0,181.7,0.0
467569,1374.0,417.0,181.7,0.0
467570,1347.0,417.0,181.7,0.0
467570,1388.0,417.0,181.7,0.0
467570,1428.0,417.0,181.7,0.0
467582,2391.0,417.0,181.7,0.0
467583,2285.0,417.0,181.7,0.0
467583,2296.0,417.0,181.7,0.0
467596,2105.0,417.0,181.7,0.0
467596,2185.0,417.0,181.7,0.0
467596,2139.0,417.0,181.7,0.0
467614,2027.0,418.0,181.7,0.0
467614,2164.0,418.0,181.7,0.0
467615,2274.0,418.0,181.7,0.0
467615,2325.0,418.0,181.7,0.0
467627,2309.0,418.0,181.7,0.0
467628,2180.0,418.0,181.7,0.0
467628,2177.0,418.0,181.7,0.0
467642,2423.0,417.0,181.7,0.0
467642,2355.0,417.0,181.7,0.0
467642,2279.0,417.0,181.7,0.0
467643,2239.0,417.0,181.7,0.0
467660,2488.0,417.0,181.7,0.0
467660,2560.0,417.0,181.7,0.0
467661,2572.0,417.0,181.7,0.0
467661,2546.0,417.0,181.7,0.0
467673,1695.0,417.0,181.7,0.0
467674,1787.0,417.0,181.7,0.0
467674,1834.0,417.0,181.7,0.0
467691,1474.0,417.0,181.7,0.0
467691,1496.0,417.0,181.7,0.0
467691,1493.0,417.0,181.7,0.0
467692,1517.0,417.0,181.7,0.0
467704,2167.0,417.0,181.7,0.0
467705,2077.0,417.0,181.7,0.0
467705,2046.0,417.0,181.7,0.0
467718,2457.0,416.0,181.7,0.0
467719,2479.0,416.0,181.7,0.0
467719,2500.0,416.0,181.7,0.0
467719,2526.0,416.0,181.7,0.0
467736,2267.0,416.0,181.7,0.0
467737,2321.0,416.0,181.7,0.0
467737,2324.0,416.0,181.7,0.0
467737,2360.0,416.0,181.7,0.0
467751,1526.0,416.0,181.7,0.0
467751,1563.0,416.0,181.7,0.0
467751,1576.0,416.0,181.7,0.0
467764,2350.0,416.0,183.9,0.0
467764,2275.0,416.0,183.9,0.0
467764,2319.0,416.0,183.9,0.0
467764,2329.0,416.0,183.9,0.0
467782,2709.0,416.0,183.9,0.0
467782,2614.0,416.0,183.9,0.0
467782,2604.0,416.0,183.9,0.0
467782,2667.0,416.0,183.9,0.0
467795,2274.0,416.0,183.9,0.0
467795,2284.0,416.0,183.9,0.0
467796,2253.0,416.0,183.9,0.0
467809,1612.0,416.0,183.9,0.0
467810,1702.0,416.0,183.9,0.0
467810,1774.0,416.0,183.9,0.0
467810,1704.0,416.0,183.9,0.0
467826,2027.0,416.0,183.9,0.0
467827,1966.0,416.0,183.9,0.0
467827,2014.0,416.0,183.9,0.0
467827,2020.0,416.0,183.9,0.0
467840,2698.0,416.0,183.9,0.0
467841,2603.0,416.0,183.9,0.0
467841,2648.0,416.0,183.9,0.0
467858,2573.0,416.0,183.9,0.0
467859,2619.0,416.0,183.9,0.0
467859,2521.0,416.0,183.9,0.0
467859,2442.0,416.0,183.9,0.0
467872,1439.0,416.0,183.9,0.0
467872,1605.0,416.0,183.9,0.0
467872,1607.0,416.0,183.9,0.0
467885,1963.0,415.0,183.9,0.0
467885,1796.0,415.0,183.9,0.0
467885,1869.0,415.0,183.9,0.0
467902,2404.0,416.0,183.9,0.0
467903,2341.0,416.0,183.9,0.0
467903,2213.0,416.0,183.9,0.0
467903,2137.0,416.0,183.9,0.0
467916,2021.0,416.0,183.9,0.0
467916,2177.0,416.0,183.9,0.0
467916,2173.0,416.0,183.9,0.0
467930,1353.0,416.0,183.9,0.0
467930,1337.0,416.0,183.9,0.0
467930,1388.0,416.0,183.9,0.0
467930,1478.0,416.0,183.9,0.0
467948,1472.0,416.0,183.9,0.0
467948,1348.0,416.0,183.9,0.0
467948,1265.0,416.0,183.9,0.0
467948,1303.0,416.0,183.9,0.0
467961,2424.0,416.0,183.9,0.0
467962,2364.0,416.0,183.9,0.0
467962,2321.0,416.0,183.9,0.0
467979,2391.0,415.0,183.9,0.0
467980,2444.0,415.0,183.9,0.0
467980,2451.0,415.0,183.9,0.0
467980,2412.0,415.0,183.9,0.0
467993,1646.0,415.0,183.9,0.0
467993,1728.0,415.0,183.9,0.0
467994,1827.0,415.0,183.9,0.0
468007,1642.0,415.0,183.9,0.0
468007,1572.0,415.0,183.9,0.0
468008,1551.0,415.0,183.9,0.0
468008,1528.0,415.0,183.9,0.0
468024,2148.0,415.0,183.9,0.0
468024,2063.0,415.0,183.9,0.0
468024,2068.0,415.0,183.9,0.0
468024,2029.0,415.0,183.9,0.0
468038,2384.0,415.0,183.9,0.0
468038,2389.0,415.0,183.9,0.0
468039,2402.0,415.0,183.9,0.0
468054,1932.0,415.0,183.9,0.0
468055,2026.0,415.0,183.9,0.0
468055,2023.0,415.0,183.9,0.0
468055,2008.0,415.0,183.9,0.0
468069,1535.0,414.0,183.9,0.0
468069,1558.0,414.0,183.9,0.0
468069,1560.0,414.0,183.9,0.0
468082,2321.0,414.0,190.5,0.0
468083,2249.0,414.0,190.5,0.0
468083,2287.0,414.0,190.5,0.0
468083,2335.0,414.0,190.5,0.0
468101,2423.0,413.0,190.5,0.0
468101,2325.0,413.0,190.5,0.0
468101,2286.0,413.0,190.5,0.0
468102,2322.0,413.0,190.5,0.0
468114,1903.0,413.0,190.5,0.0
468115,1997.0,413.0,190.5,0.0
468115,1943.0,413.0,190.5,0.0
468128,1455.0,412.0,190.5,0.0
468129,1486.0,412.0,190.5,0.0
468129,1528.0,412.0,190.5,0.0
468129,1494.0,412.0,190.5,0.0
468145,1922.0,412.0,190.5,0.0
468146,1828.0,412.0,190.5,0.0
468146,1856.0,412.0,190.5,0.0
468146,1897.0,412.0,190.5,0.0
468159,2373.0,412.0,190.5,0.0
468160,2291.0,412.0,190.5,0.0
468160,2291.0,412.0,190.5,0.0
468173,1873.0,411.0,190.5,0.0
468173,2006.0,411.0,190.5,0.0
468173,1986.0,411.0,190.5,0.0
468173,1928.0,411.0,190.5,0.0
468190,2117.0,411.0,190.5,0.0
468191,2213.0,411.0,190.5,0.0
468191,2296.0,411.0,190.5,0.0
468191,2245.0,411.0,190.5,0.0
468204,2224.0,411.0,190.5,0.0
468204,2135.0,411.0,190.5,0.0
468204,2176.0,411.0,190.5,0.0
468221,2381.0,411.0,190.5,0.0
468222,2314.0,411.0,190.5,0.0
468222,2231.0,411.0,190.5,0.0
468222,2234.0,411.0,190.5,0.0
468235,2076.0,411.0,190.5,0.0
468235,2196.0,411.0,190.5,0.0
468236,2164.0,411.0,190.5,0.0
468249,1447.0,410.0,190.5,0.0
468250,1408.0,410.0,190.5,0.0
468250,1463.0,410.0,190.5,0.0
468250,1471.0,410.0,190.5,0.0
468267,1690.0,410.0,190.5,0.0
468268,1596.0,410.0,190.5,0.0
468268,1608.0,410.0,190.5,0.0
468268,1634.0,410.0,190.5,0.0
468281,2328.0,410.0,190.5,0.0
468281,2276.0,410.0,190.5,0.0
468281,2237.0,410.0,190.5,0.0
468298,2395.0,409.0,190.5,0.0
468299,2460.0,409.0,190.5,0.0
468299,2455.0,409.0,190.5,0.0
468299,2411.0,409.0,190.5,0.0
468312,1684.0,409.0,190.5,0.0
468312,1786.0,409.0,190.5,0.0
468312,1818.0,409.0,190.5,0.0
468325,2189.0,409.0,190.5,0.0
468325,2092.0,409.0,190.5,0.0
468325,2081.0,409.0,190.5,0.0
468343,2433.0,409.0,190.5,0.0
468344,2387.0,409.0,190.5,0.0
468344,2332.0,409.0,190.5,0.0
468344,2285.0,409.0,190.5,0.0
468357,2517.0,408.0,190.5,0.0
468358,2586.0,408.0,190.5,0.0
468358,2611.0,408.0,190.5,0.0
468371,1895.0,408.0,190.5,0.0
468371,1883.0,408.0,190.5,0.0
468371,1879.0,408.0,190.5,0.0
468371,1908.0,408.0,190.5,0.0
468388,1990.0,408.0,190.5,0.0
468389,1970.0,408.0,190.5,0.0
468389,1937.0,408.0,190.5,0.0
468389,1925.0,408.0,190.5,0.0
468402,2532.0,408.0,190.5,0.0
468402,2510.0,408.0,190.5,0.0
468402,2509.0,408.0,190.5,0.0
468416,2346.0,407.0,190.5,0.0
468417,2366.0,407.0,190.5,0.0
468417,2360.0,407.0,190.5,0.0
468417,2384.0,407.0,190.5,0.0
468433,1779.0,407.0,190.5,0.0
468433,1849.0,407.0,190.5,0.0
468434,1842.0,407.0,190.5,0.0
468434,1828.0,407.0,190.5,0.0
468447,1638.0,406.0,190.5,0.0
468448,1652.0,406.0,190.5,0.0
468448,1635.0,406.0,190.5,0.0
468464,2051.0,406.0,190.5,0.0
468464,1945.0,406.0,190.5,0.0
468465,1948.0,406.0,190.5,0.0
468465,1990.0,406.0,190.5,0.0
468478,2305.0,405.0,179.4,0.0
468479,2265.0,405.0,179.4,0.0
468479,2242.0,405.0,179.4,0.0
468492,1556.0,405.0,179.4,0.0
468492,1664.0,405.0,179.4,0.0
468492,1656.0,405.0,179.4,0.0
468492,1586.0,405.0,179.4,0.0
468509,1476.0,405.0,179.4,0.0
468510,1526.0,405.0,179.4,0.0
468510,1575.0,405.0,179.4,0.0
468510,1512.0,405.0,179.4,0.0
468522,2154.0,404.0,179.4,0.0
468523,2102.0,404.0,179.4,0.0
468523,2166.0,404.0,179.4,0.0
468537,2258.0,404.0,179.4,0.0
468537,2253.0,404.0,179.4,0.0
468537,2179.0,404.0,179.4,0.0
468538,2184.0,404.0,179.4,0.0
468554,1836.0,404.0,179.4,0.0
468554,1963.0,404.0,179.4,0.0
468554,1933.0,404.0,179.4,0.0
468554,1860.0,404.0,179.4,0.0
468568,1587.0,403.0,179.4,0.0
468569,1652.0,403.0,179.4,0.0
468569,1699.0,403.0,179.4,0.0
468586,1833.0,402.0,179.4,0.0
468586,1695.0,402.0,179.4,0.0
468587,1675.0,402.0,179.4,0.0
468587,1741.0,402.0,179.4,0.0
468599,2420.0,402.0,179.4,0.0
468600,2359.0,402.0,179.4,0.0
468600,2308.0,402.0,179.4,0.0
468613,1767.0,402.0,179.4,0.0
468613,1890.0,402.0,179.4,0.0
468613,1910.0,402.0,179.4,0.0
468630,1575.0,401.0,179.4,0.0
468631,1532.0,401.0,179.4,0.0
468631,1600.0,401.0,179.4,0.0
468631,1670.0,401.0,179.4,0.0
468644,2163.0,401.0,179.4,0.0
468644,2057.0,401.0,179.4,0.0
468644,2018.0,401.0,179.4,0.0
468658,2360.0,400.0,179.4,0.0
468658,2445.0,400.0,179.4,0.0
468658,2407.0,400.0,179.4,0.0
468658,2439.0,400.0,179.4,0.0
468675,2109.0,399.0,179.4,0.0
468676,2196.0,399.0,179.4,0.0
468676,2252.0,399.0,179.4,0.0
468676,2247.0,399.0,179.4,0.0
468689,1541.0,399.0,179.4,0.0
468689,1529.0,399.0,179.4,0.0
468689,1534.0,399.0,179.4,0.0
468707,1758.0,399.0,179.4,0.0
468707,1699.0,399.0,179.4,0.0
468707,1657.0,399.0,179.4,0.0
468707,1656.0,399.0,179.4,0.0
468720,2364.0,398.0,179.4,0.0
468721,2346.0,398.0,179.4,0.0
468721,2342.0,398.0,179.4,0.0
468734,1957.0,398.0,179.4,0.0
468735,2010.0,398.0,179.4,0.0
468735,2010.0,398.0,179.4,0.0
468735,2001.0,398.0,179.4,0.0
468751,1663.0,398.0,179.4,0.0
468752,1727.0,398.0,179.4,0.0
468752,1736.0,398.0,179.4,0.0
468752,1727.0,398.0,179.4,0.0
468765,2550.0,398.0,179.4,0.0
468766,2525.0,398.0,179.4,0.0
468766,2554.0,398.0,179.4,0.0
468782,2692.0,398.0,179.4,0.0
468782,2581.0,398.0,179.4,0.0
468783,2515.0,398.0,179.4,0.0
468783,2521.0,398.0,179.4,0.0
468796,2006.0,398.0,179.4,0.0
468797,2058.0,398.0,179.4,0.0
468797,2011.0,398.0,179.4,0.0
468810,1641.0,398.0,179.4,0.0
468810,1675.0,398.0,179.4,0.0
468810,1729.0,398.0,179.4,0.0
468810,1729.0,398.0,179.4,0.0
468828,1582.0,397.0,179.4,0.0
468829,1505.0,397.0,179.4,0.0
468829,1522.0,397.0,179.4,0.0
468829,1571.0,397.0,179.4,0.0
468842,2339.0,397.0,173.7,0.0
468842,2250.0,397.0,173.7,0.0
468843,2234.0,397.0,173.7,0.0
468856,2244.0,397.0,173.7,0.0
468856,2322.0,397.0,173.7,0.0
468857,2311.0,397.0,173.7,0.0
468857,2278.0,397.0,173.7,0.0
468874,1949.0,397.0,173.7,0.0
468874,2066.0,397.0,173.7,0.0
468875,2118.0,397.0,173.7,0.0
468875,2094.0,397.0,173.7,0.0
468887,1744.0,397.0,173.7,0.0
468888,1726.0,397.0,173.7,0.0
468888,1744.0,397.0,173.7,0.0
468905,2131.0,397.0,173.7,0.0
468905,2032.0,397.0,173.7,0.0
468906,2005.0,397.0,173.7,0.0
468906,2014.0,397.0,173.7,0.0
468918,2546.0,397.0,173.7,0.0
468919,2551.0,397.0,173.7,0.0
468919,2548.0,397.0,173.7,0.0
468931,1894.0,398.0,173.7,0.0
468932,1960.0,398.0,173.7,0.0
468932,1947.0,398.0,173.7,0.0
468950,1915.0,399.0,173.7,0.0
468950,1938.0,399.0,173.7,0.0
468951,1973.0,399.0,173.7,0.0
468951,1998.0,399.0,173.7,0.0
468964,2356.0,402.0,173.7,0.0
468965,2271.0,402.0,173.7,0.0
468965,2268.0,402.0,173.7,0.0
468977,2600.0,403.0,173.7,0.0
468978,2639.0,403.0,173.7,0.0
468978,2627.0,403.0,173.7,0.0
468978,2620.0,403.0,173.7,0.0
468995,2256.0,408.0,173.7,0.0
468996,2338.0,408.0,173.7,0.0
468996,2345.0,408.0,173.7,0.0
468996,2338.0,408.0,173.7,0.0
469008,1692.0,411.0,173.7,0.0
469009,1692.0,411.0,173.7,0.0
469009,1693.0,411.0,173.7,0.0
469026,1808.0,418.0,173.7,0.0
469026,1723.0,418.0,173.7,0.0
469026,1719.0,418.0,173.7,0.0
469027,1718.0,418.0,173.7,0.0
469039,2303.0,422.0,173.7,0.0
469040,2257.0,422.0,173.7,0.0
469040,2267.0,422.0,173.7,0.0
469053,1861.0,433.0,173.7,0.0
469054,1920.0,433.0,173.7,0.0
469054,1918.0,433.0,173.7,0.0
469054,1885.0,433.0,173.7,0.0
469071,1605.0,439.0,173.7,0.0
469071,1691.0,439.0,173.7,0.0
469072,1717.0,439.0,173.7,0.0
469072,1694.0,439.0,173.7,0.0
469085,1762.0,452.0,173.7,0.0
469086,1720.0,452.0,173.7,0.0
469086,1743.0,452.0,173.7,0.0
469099,2323.0,459.0,173.7,0.0
469099,2294.0,459.0,173.7,0.0
469099,2279.0,459.0,173.7,0.0
469099,2305.0,459.0,173.7,0.0
469116,2194.0,473.0,173.7,0.0
469117,2227.0,473.0,173.7,0.0
469117,2193.0,473.0,173.7,0.0
469117,2194.0,473.0,173.7,0.0
469129,1567.0,481.0,173.7,0.0
469130,1623.0,481.0,173.7,0.0
469130,1609.0,481.0,173.7,0.0
469144,2078.0,496.0,173.7,0.0
469144,2025.0,496.0,173.7,0.0
469144,2071.0,496.0,173.7,0.0
469144,2118.0,496.0,173.7,0.0
469160,2308.0,504.0,171.9,0.0
469161,2210.0,504.0,171.9,0.0
469161,2193.0,504.0,171.9,0.0
469161,2265.0,504.0,171.9,0.0
469175,2114.0,521.0,171.9,0.0
469175,2129.0,521.0,171.9,0.0
469175,2057.0,521.0,171.9,0.0
469191,1638.0,530.0,171.9,0.0
469192,1763.0,530.0,171.9,0.0
469192,1826.0,530.0,171.9,0.0
469192,1794.0,530.0,171.9,0.0
469206,1773.0,550.0,171.9,0.0
469206,1731.0,550.0,171.9,0.0
469206,1774.0,550.0,171.9,0.0
469219,2381.0,561.0,171.9,0.0
469219,2330.0,561.0,171.9,0.0
469220,2289.0,561.0,171.9,0.0
469220,2310.0,561.0,171.9,0.0
469237,2324.0,584.0,171.9,0.0
469237,2366.0,584.0,171.9,0.0
469237,2324.0,584.0,171.9,0.0
469238,2296.0,584.0,171.9,0.0
469250,1605.0,597.0,171.9,0.0
469251,1682.0,597.0,171.9,0.0
469251,1684.0,597.0,171.9,0.0
469264,2030.0,620.0,171.9,0.0
469265,1939.0,620.0,171.9,0.0
469265,1974.0,620.0,171.9,0.0
469265,2022.0,620.0,171.9,0.0
469281,2448.0,630.0,171.9,0.0
469281,2341.0,630.0,171.9,0.0
469282,2308.0,630.0,171.9,0.0
469282,2368.0,630.0,171.9,0.0
469295,2143.0,649.0,171.9,0.0
469296,2152.0,649.0,171.9,0.0
469296,2091.0,649.0,171.9,0.0
469313,1836.0,663.0,171.9,0.0
469313,1959.0,663.0,171.9,0.0
469314,2033.0,663.0,171.9,0.0
469314,2022.0,663.0,171.9,0.0
469326,1752.0,669.0,171.9,0.0
469327,1698.0,669.0,171.9,0.0
469327,1739.0,669.0,171.9,0.0
469340,2359.0,674.0,171.9,0.0
469340,2316.0,674.0,171.9,0.0
469340,2264.0,674.0,171.9,0.0
469357,2266.0,682.0,171.9,0.0
469357,2365.0,682.0,171.9,0.0
469358,2380.0,682.0,171.9,0.0
469358,2367.0,682.0,171.9,0.0
469370,2024.0,686.0,171.9,0.0
469371,2086.0,686.0,171.9,0.0
469371,2143.0,686.0,171.9,0.0
469384,2774.0,696.0,171.9,0.0
469385,2669.0,696.0,171.9,0.0
469385,2645.0,696.0,171.9,0.0
469385,2610.0,696.0,171.9,0.0
469402,2195.0,709.0,171.9,0.0
469402,2118.0,709.0,171.9,0.0
469403,2062.0,709.0,171.9,0.0
469403,2027.0,709.0,171.9,0.0
469415,2056.0,718.0,171.9,0.0
469416,2126.0,718.0,171.9,0.0
469416,2120.0,718.0,171.9,0.0
469433,1816.0,743.0,171.9,0.0
469433,1851.0,743.0,171.9,0.0
469434,1900.0,743.0,171.9,0.0
469434,1930.0,743.0,171.9,0.0
469446,1849.0,761.0,171.9,0.0
469447,1760.0,761.0,171.9,0.0
469447,1733.0,761.0,171.9,0.0
469459,2408.0,784.0,171.9,0.0
469460,2398.0,784.0,171.9,0.0
469460,2412.0,784.0,171.9,0.0
469477,2383.0,849.0,171.9,0.0
469477,2411.0,849.0,171.9,0.0
469478,2399.0,849.0,171.9,0.0
469478,2374.0,849.0,171.9,0.0
469491,1761.0,944.0,171.9,0.0
469492,1820.0,944.0,171.9,0.0
469492,1801.0,944.0,171.9,0.0
469508,1780.0,1007.0,171.9,0.0
469508,1790.0,1007.0,171.9,0.0
469509,1816.0,1007.0,171.9,0.0
469522,2436.0,1169.0,171.9,0.0
469522,2369.0,1169.0,171.9,0.0
469523,2337.0,1169.0,171.9,0.0
469535,2412.0,1265.0,171.9,0.0
469536,2499.0,1265.0,171.9,0.0
469536,2504.0,1265.0,171.9,0.0
469554,2253.0,1470.0,171.9,0.0
469554,2296.0,1470.0,171.9,0.0
469554,2336.0,1470.0,171.9,0.0
469567,2096.0,1577.0,171.9,0.0
469567,2062.0,1577.0,171.9,0.0
469567,2005.0,1577.0,171.9,0.0
469580,2674.0,1683.0,171.9,0.0
469580,2677.0,1683.0,171.9,0.0
469581,2690.0,1683.0,171.9,0.0
469598,2672.0,1897.0,171.9,0.0
469598,2644.0,1897.0,171.9,0.0
469598,2615.0,1897.0,171.9,0.0
469611,1863.0,2118.0,171.9,0.0
469612,1959.0,2118.0,171.9,0.0
469612,1975.0,2118.0,171.9,0.0
469625,1936.0,2230.0,171.9,0.0
469625,1848.0,2230.0,171.9,0.0
469625,1823.0,2230.0,171.9,0.0
469642,2262.0,2458.0,171.9,0.0
469643,2160.0,2458.0,171.9,0.0
469643,2103.0,2458.0,171.9,0.0
469655,2102.0,2572.0,171.9,0.0
469656,2170.0,2572.0,171.9,0.0
469656,2210.0,2572.0,171.9,0.0
469673,1897.0,2800.0,171.9,0.0
469674,1922.0,2800.0,171.9,0.0
469674,1925.0,2800.0,171.9,0.0
469686,1625.0,2914.0,171.9,0.0
469687,1616.0,2914.0,171.9,0.0
469687,1594.0,2914.0,171.9,0.0
469701,2297.0,3141.0,171.9,0.0
469701,2233.0,3141.0,171.9,0.0
469701,2276.0,3141.0,171.9,0.0
469717,2313.0,3253.0,171.9,0.0
469718,2313.0,3253.0,171.9,0.0
469718,2261.0,3253.0,171.9,0.0
469731,1613.0,3478.0,171.9,0.0
469732,1726.0,3478.0,171.9,0.0
469732,1783.0,3478.0,171.9,0.0
469748,1535.0,3589.0,171.9,0.0
469748,1478.0,3589.0,171.9,0.0
469748,1467.0,3589.0,171.9,0.0
469762,2212.0,3810.0,171.9,0.0
469762,2187.0,3810.0,171.9,0.0
469763,2167.0,3810.0,171.9,0.0
469775,2127.0,3921.0,171.9,0.0
469775,2153.0,3921.0,171.9,0.0
469776,2191.0,3921.0,171.9,0.0
469794,1980.0,4140.0,171.9,0.0
469794,2048.0,4140.0,171.9,0.0
469794,2040.0,4140.0,171.9,0.0
469807,1614.0,4250.0,171.9,0.0
469807,1598.0,4250.0,171.9,0.0
469807,1603.0,4250.0,171.9,0.0
469821,2306.0,4467.0,151.5,0.0
469821,2249.0,4467.0,151.5,0.0
469821,2252.0,4467.0,151.5,0.0
469837,2367.0,4576.0,151.5,0.0
469838,2382.0,4576.0,151.5,0.0
469838,2353.0,4576.0,151.5,0.0
469851,1656.0,4791.0,151.5,0.0
469852,1748.0,4791.0,151.5,0.0
469852,1787.0,4791.0,151.5,0.0
469868,1626.0,4898.0,151.5,0.0
469868,1585.0,4898.0,151.5,0.0
469868,1582.0,4898.0,151.5,0.0
469882,2222.0,5111.0,151.5,0.0
469882,2181.0,5111.0,151.5,0.0
469883,2173.0,5111.0,151.5,0.0
469895,2142.0,5217.0,151.5,0.0
469896,2188.0,5217.0,151.5,0.0
469896,2205.0,5217.0,151.5,0.0
469914,1978.0,5427.0,151.5,0.0
469914,2052.0,5427.0,151.5,0.0
469914,2069.0,5427.0,151.5,0.0
469927,1579.0,5532.0,151.5,0.0
469927,1540.0,5532.0,151.5,0.0
469928,1532.0,5532.0,151.5,0.0
469941,2235.0,5741.0,151.5,0.0
469941,2194.0,5741.0,151.5,0.0
469942,2192.0,5741.0,151.5,0.0
469958,2382.0,5844.0,151.5,0.0
469958,2396.0,5844.0,151.5,0.0
469958,2379.0,5844.0,151.5,0.0
469972,2310.0,6050.0,151.5,0.0
469972,2426.0,6050.0,151.5,0.0
469972,2456.0,6050.0,151.5,0.0
469988,1975.0,6153.0,151.5,0.0
469989,1919.0,6153.0,151.5,0.0
469989,1892.0,6153.0,151.5,0.0
470002,1867.0,6356.0,151.5,0.0
470003,1852.0,6356.0,151.5,0.0
470003,1840.0,6356.0,151.5,0.0
470016,2284.0,6458.0,151.5,0.0
470016,2271.0,6458.0,151.5,0.0
470016,2307.0,6458.0,151.5,0.0
470034,2052.0,6659.0,151.5,0.0
470035,2123.0,6659.0,151.5,0.0
470035,2117.0,6659.0,151.5,0.0
470048,1587.0,6760.0,151.5,0.0
470048,1597.0,6760.0,151.5,0.0
470048,1615.0,6760.0,151.5,0.0
470062,2170.0,6960.0,151.5,0.0
470062,2092.0,6960.0,151.5,0.0
470062,2080.0,6960.0,151.5,0.0
470079,2351.0,7158.0,151.5,0.0
470080,2376.0,7158.0,151.5,0.0
470080,2338.0,7158.0,151.5,0.0
470093,1912.0,7256.0,151.5,0.0
470093,1982.0,7256.0,151.5,0.0
470093,2024.0,7256.0,151.5,0.0
470106,1840.0,7355.0,151.5,0.0
470106,1770.0,7355.0,151.5,0.0
470106,1739.0,7355.0,151.5,0.0
470123,2123.0,7550.0,151.5,0.0
470124,2070.0,7550.0,151.5,0.0
470124,2058.0,7550.0,151.5,0.0
470137,2492.0,7648.0,176.5,0.0
470137,2502.0,7648.0,176.5,0.0
470137,2526.0,7648.0,176.5,0.0
470154,2407.0,7841.0,176.5,0.0
470155,2479.0,7841.0,176.5,0.0
470155,2476.0,7841.0,176.5,0.0
470168,1842.0,7937.0,176.5,0.0
470168,1851.0,7937.0,176.5,0.0
470168,1856.0,7937.0,176.5,0.0
470182,2392.0,8128.0,176.5,0.0
470182,2321.0,8128.0,176.5,0.0
470183,2324.0,8128.0,176.5,0.0
470200,2505.0,8317.0,176.5,0.0
470200,2483.0,8317.0,176.5,0.0
470200,2436.0,8317.0,176.5,0.0
470201,2363.0,8317.0,176.5,0.0
470213,1984.0,8410.0,176.5,0.0
470214,2061.0,8410.0,176.5,0.0
470214,2075.0,8410.0,176.5,0.0
470231,1600.0,8596.0,176.5,0.0
470231,1682.0,8596.0,176.5,0.0
470232,1725.0,8596.0,176.5,0.0
470244,1762.0,8688.0,176.5,0.0
470245,1696.0,8688.0,176.5,0.0
470245,1663.0,8688.0,176.5,0.0
470258,2247.0,8869.0,176.5,0.0
470259,2246.0,8869.0,176.5,0.0
470259,2263.0,8869.0,176.5,0.0
470276,2202.0,8960.0,176.5,0.0
470276,2216.0,8960.0,176.5,0.0
470277,2200.0,8960.0,176.5,0.0
470290,1492.0,9138.0,176.5,0.0
470291,1571.0,9138.0,176.5,0.0
470291,1583.0,9138.0,176.5,0.0
470303,1832.0,9227.0,176.5,0.0
470304,1767.0,9227.0,176.5,0.0
470304,1783.0,9227.0,176.5,0.0
470321,2165.0,9403.0,176.5,0.0
470322,2105.0,9403.0,176.5,0.0
470322,2053.0,9403.0,176.5,0.0
470334,2019.0,9491.0,176.5,0.0
470335,2104.0,9491.0,176.5,0.0
470335,2139.0,9491.0,176.5,0.0
470352,1785.0,9666.0,176.5,0.0
470353,1841.0,9666.0,176.5,0.0
470353,1856.0,9666.0,176.5,0.0
470365,1645.0,9753.0,176.5,0.0
470366,1615.0,9753.0,176.5,0.0
470366,1591.0,9753.0,176.5,0.0
470380,2267.0,9926.0,176.5,0.0
470380,2231.0,9926.0,176.5,0.0
470380,2250.0,9926.0,176.5,0.0
470398,2368.0,10097.0,176.5,0.0
470399,2352.0,10097.0,176.5,0.0
470399,2296.0,10097.0,176.5,0.0
470411,1694.0,10183.0,176.5,0.0
470412,1803.0,10183.0,176.5,0.0
470412,1860.0,10183.0,176.5,0.0
470425,1770.0,10268.0,176.5,0.0
470425,1662.0,10268.0,176.5,0.0
470425,1650.0,10268.0,176.5,0.0
470442,2139.0,10438.0,176.5,0.0
470443,2088.0,10438.0,176.5,0.0
470443,2036.0,10438.0,176.5,0.0
470456,2258.0,10522.0,189.1,0.0
470456,2296.0,10522.0,189.1,0.0
470456,2331.0,10522.0,189.1,0.0
470470,1580.0,10690.0,189.1,0.0
470470,1610.0,10690.0,189.1,0.0
470470,1586.0,10690.0,189.1,0.0
470486,1491.0,10773.0,189.1,0.0
470487,1476.0,10773.0,189.1,0.0
470487,1500.0,10773.0,189.1,0.0
470488,1492.0,10773.0,189.1,0.0
470501,2139.0,10938.0,189.1,0.0
470502,2056.0,10938.0,189.1,0.0
470502,2084.0,10938.0,189.1,0.0
470519,2331.0,11102.0,189.1,0.0
470520,2294.0,11102.0,189.1,0.0
470520,2227.0,11102.0,189.1,0.0
470533,1873.0,11184.0,189.1,0.0
470533,1987.0,11184.0,189.1,0.0
470533,2053.0,11184.0,189.1,0.0
470546,2022.0,11265.0,189.1,0.0
470546,1967.0,11265.0,189.1,0.0
470546,1943.0,11265.0,189.1,0.0
470563,2538.0,11426.0,189.1,0.0
470564,2446.0,11426.0,189.1,0.0
470564,2419.0,11426.0,189.1,0.0
470577,2071.0,11587.0,189.1,0.0
470578,2056.0,11587.0,189.1,0.0
470578,2065.0,11587.0,189.1,0.0
470591,1679.0,11667.0,189.1,0.0
470591,1745.0,11667.0,189.1,0.0
470591,1744.0,11667.0,189.1,0.0
470608,1463.0,11826.0,189.1,0.0
470608,1482.0,11826.0,189.1,0.0
470609,1507.0,11826.0,189.1,0.0
470621,2186.0,11905.0,189.1,0.0
470622,2107.0,11905.0,189.1,0.0
470622,2109.0,11905.0,189.1,0.0
470639,2356.0,12062.0,189.1,0.0
470639,2341.0,12062.0,189.1,0.0
470640,2321.0,12062.0,189.1,0.0
470652,1905.0,12140.0,189.1,0.0
470653,2009.0,12140.0,189.1,0.0
470653,2037.0,12140.0,189.1,0.0
470666,1704.0,12218.0,189.1,0.0
470666,1653.0,12218.0,189.1,0.0
470666,1622.0,12218.0,189.1,0.0
470683,2074.0,12372.0,189.1,0.0
470683,2015.0,12372.0,189.1,0.0
470684,2005.0,12372.0,189.1,0.0
470697,2474.0,12526.0,189.1,0.0
470698,2457.0,12526.0,189.1,0.0
470698,2451.0,12526.0,189.1,0.0
470714,2317.0,12603.0,189.1,0.0
470714,2368.0,12603.0,189.1,0.0
470714,2387.0,12603.0,189.1,0.0
470728,1778.0,12756.0,189.1,0.0
470728,1773.0,12756.0,189.1,0.0
470728,1816.0,12756.0,189.1,0.0
470741,2526.0,12831.0,189.1,0.0
470741,2473.0,12831.0,189.1,0.0
470742,2460.0,12831.0,189.1,0.0
470760,2626.0,12982.0,189.1,0.0
470760,2608.0,12982.0,189.1,0.0
470760,2551.0,12982.0,189.1,0.0
470773,2175.0,13057.0,189.1,0.0
470773,2249.0,13057.0,189.1,0.0
470773,2277.0,13057.0,189.1,0.0
470787,1623.0,13206.0,189.1,0.0
470787,1596.0,13206.0,189.1,0.0
470788,1585.0,13206.0,189.1,0.0
470804,1867.0,13279.0,189.1,0.0
470804,1792.0,13279.0,189.1,0.0
470804,1800.0,13279.0,189.1,0.0
470818,2304.0,13425.0,176.6,0.0
470818,2287.0,13425.0,176.6,0.0
470819,2272.0,13425.0,176.6,0.0
470835,2103.0,13497.0,176.6,0.0
470835,2163.0,13497.0,176.6,0.0
470835,2159.0,13497.0,176.6,0.0
470849,1471.0,13640.0,176.6,0.0
470849,1506.0,13640.0,176.6,0.0
470849,1530.0,13640.0,176.6,0.0
470862,2024.0,13711.0,176.6,0.0
470862,1929.0,13711.0,176.6,0.0
470863,1928.0,13711.0,176.6,0.0
470881,2207.0,13852.0,176.6,0.0
470881,2155.0,13852.0,176.6,0.0
470881,2117.0,13852.0,176.6,0.0
470894,2022.0,13923.0,176.6,0.0
470894,2090.0,13923.0,176.6,0.0
470894,2128.0,13923.0,176.6,0.0
470908,1486.0,14062.0,176.6,0.0
470908,1468.0,14062.0,176.6,0.0
470908,1446.0,14062.0,176.6,0.0
470925,1869.0,14131.0,176.6,0.0
470925,1646.0,14131.0,176.6,0.0
470925,1657.0,14131.0,176.6,0.0
470939,2342.0,14269.0,176.6,0.0
470939,2289.0,14269.0,176.6,0.0
470939,2266.0,14269.0,176.6,0.0
470957,2345.0,14406.0,176.6,0.0
470957,2373.0,14406.0,176.6,0.0
470957,2365.0,14406.0,176.6,0.0
470970,1616.0,14474.0,176.6,0.0
470970,1676.0,14474.0,176.6,0.0
470971,1704.0,14474.0,176.6,0.0
470983,1935.0,14542.0,176.6,0.0
470984,1896.0,14542.0,176.6,0.0
470984,1829.0,14542.0,176.6,0.0
471002,2138.0,14678.0,176.6,0.0
471002,2077.0,14678.0,176.6,0.0
471002,2042.0,14678.0,176.6,0.0
471016,2293.0,14812.0,176.6,0.0
471016,2324.0,14812.0,176.6,0.0
471016,2332.0,14812.0,176.6,0.0
471029,1595.0,14879.0,176.6,0.0
471029,1644.0,14879.0,176.6,0.0
471030,1628.0,14879.0,176.6,0.0
471047,1586.0,15012.0,176.6,0.0
471047,1582.0,15012.0,176.6,0.0
471047,1615.0,15012.0,176.6,0.0
471060,2348.0,15078.0,176.6,0.0
471060,2262.0,15078.0,176.6,0.0
471061,2241.0,15078.0,176.6,0.0
471073,2030.0,15144.0,176.6,0.0
471074,2113.0,15144.0,176.6,0.0
471074,2104.0,15144.0,176.6,0.0
471091,1733.0,15275.0,176.6,0.0
471091,1813.0,15275.0,176.6,0.0
471091,1866.0,15275.0,176.6,0.0
471104,1828.0,15341.0,176.6,0.0
471104,1732.0,15341.0,176.6,0.0
471105,1686.0,15341.0,176.6,0.0
471122,2051.0,15469.0,176.6,0.0
471122,2010.0,15469.0,176.6,0.0
471123,2003.0,15469.0,176.6,0.0
471136,2535.0,15598.0,182.5,0.0
471137,2555.0,15598.0,182.5,0.0
471137,2561.0,15598.0,182.5,0.0
471149,2315.0,15662.0,182.5,0.0
471150,2379.0,15662.0,182.5,0.0
471150,2370.0,15662.0,182.5,0.0
471167,1687.0,15790.0,182.5,0.0
471167,1655.0,15790.0,182.5,0.0
471167,1668.0,15790.0,182.5,0.0
471180,2113.0,15853.0,182.5,0.0
471180,2055.0,15853.0,182.5,0.0
471181,2042.0,15853.0,182.5,0.0
471193,2193.0,15916.0,182.5,0.0
471194,2255.0,15916.0,182.5,0.0
471194,2269.0,15916.0,182.5,0.0
471211,1713.0,16041.0,182.5,0.0
471211,1789.0,16041.0,182.5,0.0
471211,1816.0,16041.0,182.5,0.0
471225,1710.0,16166.0,182.5,0.0
471225,1646.0,16166.0,182.5,0.0
471225,1597.0,16166.0,182.5,0.0
471242,2143.0,16228.0,182.5,0.0
471242,2081.0,16228.0,182.5,0.0
471242,2077.0,16228.0,182.5,0.0
471256,2425.0,16352.0,182.5,0.0
471256,2432.0,16352.0,182.5,0.0
471257,2466.0,16352.0,182.5,0.0
471269,1719.0,16413.0,182.5,0.0
471270,1771.0,16413.0,182.5,0.0
471270,1781.0,16413.0,182.5,0.0
471287,1689.0,16535.0,182.5,0.0
471287,1684.0,16535.0,182.5,0.0
471287,1714.0,16535.0,182.5,0.0
471300,2509.0,16596.0,182.5,0.0
471300,2445.0,16596.0,182.5,0.0
471300,2425.0,16596.0,182.5,0.0
471313,2347.0,16656.0,182.5,0.0
471313,2433.0,16656.0,182.5,0.0
471314,2419.0,16656.0,182.5,0.0
471331,2097.0,16776.0,182.5,0.0
471331,2156.0,16776.0,182.5,0.0
471331,2192.0,16776.0,182.5,0.0
471345,2071.0,16896.0,182.5,0.0
471345,2013.0,16896.0,182.5,0.0
471345,1979.0,16896.0,182.5,0.0
471361,2467.0,16955.0,182.5,0.0
471362,2402.0,16955.0,182.5,0.0
471362,2411.0,16955.0,182.5,0.0
471376,2549.0,17073.0,182.5,0.0
471376,2544.0,17073.0,182.5,0.0
471376,2531.0,17073.0,182.5,0.0
471389,1690.0,17131.0,182.5,0.0
471389,1746.0,17131.0,182.5,0.0
471389,1747.0,17131.0,182.5,0.0
471407,1509.0,17247.0,182.5,0.0
471407,1491.0,17247.0,182.5,0.0
471407,1517.0,17247.0,182.5,0.0
471420,2290.0,17304.0,182.5,0.0
471420,2201.0,17304.0,182.5,0.0
471421,2170.0,17304.0,182.5,0.0
471434,2136.0,17417.0,182.5,0.0
471434,2196.0,17417.0,182.5,0.0
471435,2213.0,17417.0,182.5,0.0
471451,1726.0,17473.0,182.5,0.0
471451,1788.0,17473.0,182.5,0.0
471451,1813.0,17473.0,182.5,0.0
471465,1649.0,17584.0,182.5,0.0
471465,1623.0,17584.0,182.5,0.0
471465,1580.0,17584.0,182.5,0.0
471482,2056.0,17639.0,182.5,0.0
471482,1962.0,17639.0,182.5,0.0
471482,1986.0,17639.0,182.5,0.0
471496,2325.0,17749.0,176.6,0.0
471496,2326.0,17749.0,176.6,0.0
471497,2315.0,17749.0,176.6,0.0
471509,1619.0,17804.0,176.6,0.0
471510,1693.0,17804.0,176.6,0.0
471510,1702.0,17804.0,176.6,0.0
471527,1504.0,17913.0,176.6,0.0
471527,1507.0,17913.0,176.6,0.0
471527,1528.0,17913.0,176.6,0.0
471540,2300.0,17967.0,176.6,0.0
471541,2238.0,17967.0,176.6,0.0
471541,2193.0,17967.0,176.6,0.0
471558,2407.0,18075.0,176.6,0.0
471558,2409.0,18075.0,176.6,0.0
471559,2400.0,18075.0,176.6,0.0
471571,1872.0,18129.0,176.6,0.0
471572,1935.0,18129.0,176.6,0.0
471572,1951.0,18129.0,176.6,0.0
471585,1626.0,18235.0,176.6,0.0
471586,1595.0,18235.0,176.6,0.0
471586,1586.0,18235.0,176.6,0.0
471604,1751.0,18342.0,176.6,0.0
471605,1694.0,18342.0,176.6,0.0
471605,1690.0,18342.0,176.6,0.0
471617,2421.0,18395.0,176.6,0.0
471618,2404.0,18395.0,176.6,0.0
471618,2403.0,18395.0,176.6,0.0
471631,1866.0,18447.0,176.6,0.0
471631,1916.0,18447.0,176.6,0.0
471631,1923.0,18447.0,176.6,0.0
471648,1626.0,18552.0,176.6,0.0
471649,1683.0,18552.0,176.6,0.0
471649,1717.0,18552.0,176.6,0.0
471662,2202.0,18604.0,176.6,0.0
471662,2109.0,18604.0,176.6,0.0
471662,2080.0,18604.0,176.6,0.0
471676,2371.0,18708.0,176.6,0.0
471676,2403.0,18708.0,176.6,0.0
471677,2402.0,18708.0,176.6,0.0
471693,2173.0,18811.0,176.6,0.0
471694,2226.0,18811.0,176.6,0.0
471694,2251.0,18811.0,176.6,0.0
471707,1549.0,18862.0,176.6,0.0
471707,1557.0,18862.0,176.6,0.0
471707,1545.0,18862.0,176.6,0.0
471725,1678.0,18964.0,176.6,0.0
471725,1635.0,18964.0,176.6,0.0
471725,1654.0,18964.0,176.6,0.0
471738,2414.0,19014.0,176.6,0.0
471738,2362.0,19014.0,176.6,0.0
471739,2351.0,19014.0,176.6,0.0
471751,2431.0,19065.0,176.6,0.0
471752,2540.0,19065.0,176.6,0.0
471752,2558.0,19065.0,176.6,0.0
471769,2219.0,19165.0,176.6,0.0
471769,2224.0,19165.0,176.6,0.0
471769,2258.0,19165.0,176.6,0.0
471783,1810.0,19264.0,176.6,0.0
471783,1718.0,19264.0,176.6,0.0
471783,1658.0,19264.0,176.6,0.0
471799,2374.0,19314.0,178.6,0.0
471800,2346.0,19314.0,178.6,0.0
471800,2383.0,19314.0,178.6,0.0
471813,2211.0,19412.0,178.6,0.0
471814,2217.0,19412.0,178.6,0.0
471814,2195.0,19412.0,178.6,0.0
471827,1563.0,19461.0,178.6,0.0
471827,1617.0,19461.0,178.6,0.0
471827,1629.0,19461.0,178.6,0.0
471845,1648.0,19559.0,178.6,0.0
471846,1552.0,19559.0,178.6,0.0
471846,1590.0,19559.0,178.6,0.0
471858,2457.0,19608.0,178.6,0.0
471859,2422.0,19608.0,178.6,0.0
471859,2373.0,19608.0,178.6,0.0
471873,2187.0,19704.0,178.6,0.0
471873,2267.0,19704.0,178.6,0.0
471873,2297.0,19704.0,178.6,0.0
471889,1837.0,19752.0,178.6,0.0
471890,1862.0,19752.0,178.6,0.0
471890,1876.0,19752.0,178.6,0.0
471903,2009.0,19849.0,178.6,0.0
471904,1958.0,19849.0,178.6,0.0
471904,1948.0,19849.0,178.6,0.0
471920,2490.0,19897.0,178.6,0.0
471921,2408.0,19897.0,178.6,0.0
471921,2402.0,19897.0,178.6,0.0
471934,2643.0,19992.0,178.6,0.0
471935,2654.0,19992.0,178.6,0.0
471935,2644.0,19992.0,178.6,0.0
471948,1914.0,20039.0,178.6,0.0
471948,1964.0,20039.0,178.6,0.0
471948,1983.0,20039.0,178.6,0.0
471966,1917.0,20134.0,178.6,0.0
471967,1888.0,20134.0,178.6,0.0
471967,1889.0,20134.0,178.6,0.0
471979,2561.0,20180.0,178.6,0.0
471980,2511.0,20180.0,178.6,0.0
471980,2489.0,20180.0,178.6,0.0
471993,2344.0,20272.0,178.6,0.0
471994,2391.0,20272.0,178.6,0.0
471994,2377.0,20272.0,178.6,0.0
472010,1766.0,20318.0,178.6,0.0
472010,1842.0,20318.0,178.6,0.0
472011,1853.0,20318.0,178.6,0.0
472024,1646.0,20407.0,178.6,0.0
472025,1582.0,20407.0,178.6,0.0
472025,1570.0,20407.0,178.6,0.0
472042,1962.0,20496.0,178.6,0.0
472042,1889.0,20496.0,178.6,0.0
472042,1871.0,20496.0,178.6,0.0
472055,2269.0,20540.0,178.6,0.0
472056,2308.0,20540.0,178.6,0.0
472056,2296.0,20540.0,178.6,0.0
472068,1561.0,20584.0,178.6,0.0
472069,1614.0,20584.0,178.6,0.0
472069,1601.0,20584.0,178.6,0.0
472087,1459.0,20671.0,178.6,0.0
472088,1498.0,20671.0,178.6,0.0
472088,1521.0,20671.0,178.6,0.0
472100,2152.0,20714.0,178.6,0.0
472101,2058.0,20714.0,178.6,0.0
472101,2044.0,20714.0,178.6,0.0
472115,2276.0,20799.0,185.2,0.0
472115,2316.0,20799.0,185.2,0.0
472115,2328.0,20799.0,185.2,0.0
472116,2340.0,20799.0,185.2,0.0
472133,2069.0,20884.0,185.2,0.0
472133,2131.0,20884.0,185.2,0.0
472133,2187.0,20884.0,185.2,0.0
472146,1528.0,20926.0,185.2,0.0
472146,1509.0,20926.0,185.2,0.0
472147,1501.0,20926.0,185.2,0.0
472159,2262.0,20968.0,185.2,0.0
472160,2230.0,20968.0,185.2,0.0
472160,2235.0,20968.0,185.2,0.0
472177,2408.0,21052.0,185.2,0.0
472177,2383.0,21052.0,185.2,0.0
472177,2355.0,21052.0,185.2,0.0
472190,1763.0,21094.0,185.2,0.0
472190,1861.0,21094.0,185.2,0.0
472191,1881.0,21094.0,185.2,0.0
472208,1542.0,21177.0,185.2,0.0
472208,1564.0,21177.0,185.2,0.0
472208,1584.0,21177.0,185.2,0.0
472222,2009.0,21260.0,185.2,0.0
472222,1923.0,21260.0,185.2,0.0
472223,1897.0,21260.0,185.2,0.0
472235,2350.0,21301.0,185.2,0.0
472236,2369.0,21301.0,185.2,0.0
472236,2405.0,21301.0,185.2,0.0
472253,2135.0,21383.0,185.2,0.0
472253,2190.0,21383.0,185.2,0.0
472253,2195.0,21383.0,185.2,0.0
472266,1612.0,21424.0,185.2,0.0
472266,1626.0,21424.0,185.2,0.0
472266,1635.0,21424.0,185.2,0.0
472279,2361.0,21464.0,185.2,0.0
472279,2301.0,21464.0,185.2,0.0
472280,2322.0,21464.0,185.2,0.0
472297,2466.0,21545.0,185.2,0.0
472297,2451.0,21545.0,185.2,0.0
472297,2393.0,21545.0,185.2,0.0
472311,1783.0,21625.0,185.2,0.0
472311,1870.0,21625.0,185.2,0.0
472311,1937.0,21625.0,185.2,0.0
472327,1553.0,21665.0,185.2,0.0
472328,1553.0,21665.0,185.2,0.0
472328,1559.0,21665.0,185.2,0.0
472342,1979.0,21744.0,185.2,0.0
472342,1918.0,21744.0,185.2,0.0
472342,1914.0,21744.0,185.2,0.0
472355,2318.0,21783.0,185.2,0.0
472355,2325.0,21783.0,185.2,0.0
472355,2349.0,21783.0,185.2,0.0
472372,2692.0,21862.0,185.2,0.0
472373,2779.0,21862.0,185.2,0.0
472373,2778.0,21862.0,185.2,0.0
472386,2284.0,21900.0,185.2,0.0
472386,2286.0,21900.0,185.2,0.0
472386,2285.0,21900.0,185.2,0.0
472399,2341.0,21939.0,185.2,0.0
472399,2268.0,21939.0,185.2,0.0
472399,2260.0,21939.0,185.2,0.0
472416,2411.0,22017.0,185.2,0.0
472417,2422.0,22017.0,185.2,0.0
472417,2409.0,22017.0,185.2,0.0
472430,1846.0,22093.0,185.2,0.0
472431,1921.0,22093.0,185.2,0.0
472431,1951.0,22093.0,185.2,0.0
472447,1587.0,22131.0,185.2,0.0
472448,1588.0,22131.0,185.2,0.0
472448,1598.0,22131.0,185.2,0.0
472462,2050.0,22208.0,185.2,0.0
472462,1980.0,22208.0,185.2,0.0
472462,1971.0,22208.0,185.2,0.0
472475,2391.0,22245.0,179.2,0.0
472475,2397.0,22245.0,179.2,0.0
472475,2406.0,22245.0,179.2,0.0
472492,2210.0,22321.0,179.2,0.0
472493,2281.0,22321.0,179.2,0.0
472493,2284.0,22321.0,179.2,0.0
472506,1637.0,22358.0,179.2,0.0
472506,1650.0,22358.0,179.2,0.0
472506,1644.0,22358.0,179.2,0.0
472520,2382.0,22433.0,179.2,0.0
472520,2321.0,22433.0,179.2,0.0
472520,2323.0,22433.0,179.2,0.0
472536,2644.0,22470.0,179.2,0.0
472537,2660.0,22470.0,179.2,0.0
472537,2642.0,22470.0,179.2,0.0
472550,2157.0,22544.0,179.2,0.0
472551,2236.0,22544.0,179.2,0.0
472551,2277.0,22544.0,179.2,0.0
472567,1898.0,22581.0,179.2,0.0
472568,1909.0,22581.0,179.2,0.0
472568,1926.0,22581.0,179.2,0.0
472581,2390.0,22653.0,179.2,0.0
472582,2329.0,22653.0,179.2,0.0
472582,2305.0,22653.0,179.2,0.0
472595,2623.0,22690.0,179.2,0.0
472595,2634.0,22690.0,179.2,0.0
472595,2654.0,22690.0,179.2,0.0
472612,2250.0,22761.0,179.2,0.0
472613,2316.0,22761.0,179.2,0.0
472613,2325.0,22761.0,179.2,0.0
472625,1569.0,22797.0,179.2,0.0
472626,1554.0,22797.0,179.2,0.0
472626,1561.0,22797.0,179.2,0.0
472639,2204.0,22866.0,179.2,0.0
472640,2129.0,22866.0,179.2,0.0
472640,2120.0,22866.0,179.2,0.0
472656,2340.0,22901.0,179.2,0.0
472656,2326.0,22901.0,179.2,0.0
472657,2281.0,22901.0,179.2,0.0
472670,1743.0,22969.0,179.2,0.0
472671,1848.0,22969.0,179.2,0.0
472671,1890.0,22969.0,179.2,0.0
472687,1483.0,23002.0,179.2,0.0
472688,1495.0,23002.0,179.2,0.0
472688,1502.0,23002.0,179.2,0.0
472701,1923.0,23069.0,179.2,0.0
472702,1874.0,23069.0,179.2,0.0
472702,1860.0,23069.0,179.2,0.0
472715,2272.0,23102.0,179.2,0.0
472715,2282.0,23102.0,179.2,0.0
472715,2303.0,23102.0,179.2,0.0
472732,2042.0,23168.0,179.2,0.0
472733,2109.0,23168.0,179.2,0.0
472733,2102.0,23168.0,179.2,0.0
472745,1476.0,23201.0,179.2,0.0
472746,1471.0,23201.0,179.2,0.0
472746,1492.0,23201.0,179.2,0.0
472759,2220.0,23266.0,179.2,0.0
472760,2131.0,23266.0,179.2,0.0
472760,2126.0,23266.0,179.2,0.0
472776,2371.0,23299.0,179.2,0.0
472777,2381.0,23299.0,179.2,0.0
472777,2344.0,23299.0,179.2,0.0
472790,1807.0,23364.0,179.2,0.0
472791,1902.0,23364.0,179.2,0.0
472791,1937.0,23364.0,179.2,0.0
472807,1539.0,23396.0,179.2,0.0
472808,1554.0,23396.0,179.2,0.0
472808,1554.0,23396.0,179.2,0.0
472821,1973.0,23460.0,179.2,0.0
472822,1920.0,23460.0,179.2,0.0
472822,1903.0,23460.0,179.2,0.0
472834,2322.0,23492.0,179.4,0.0
472835,2333.0,23492.0,179.4,0.0
472835,2363.0,23492.0,179.4,0.0
472852,2139.0,23555.0,179.4,0.0
472853,2179.0,23555.0,179.4,0.0
472853,2177.0,23555.0,179.4,0.0
472865,1492.0,23587.0,179.4,0.0
472866,1509.0,23587.0,179.4,0.0
472866,1521.0,23587.0,179.4,0.0
472883,1779.0,23650.0,179.4,0.0
472884,1707.0,23650.0,179.4,0.0
472884,1684.0,23650.0,179.4,0.0
472897,2388.0,23681.0,179.4,0.0
472897,2379.0,23681.0,179.4,0.0
472897,2382.0,23681.0,179.4,0.0
472911,1927.0,23743.0,179.4,0.0
472911,1984.0,23743.0,179.4,0.0
472911,1983.0,23743.0,179.4,0.0
472929,1699.0,23804.0,179.4,0.0
472930,1774.0,23804.0,179.4,0.0
472930,1817.0,23804.0,179.4,0.0
472943,1786.0,23835.0,179.4,0.0
472943,1702.0,23835.0,179.4,0.0
472943,1677.0,23835.0,179.4,0.0
472956,2341.0,23865.0,179.4,0.0
472956,2343.0,23865.0,179.4,0.0
472957,2355.0,23865.0,179.4,0.0
472974,2361.0,23925.0,179.4,0.0
472974,2404.0,23925.0,179.4,0.0
472974,2395.0,23925.0,179.4,0.0
472987,2161.0,23955.0,179.4,0.0
472987,2225.0,23955.0,179.4,0.0
472987,2249.0,23955.0,179.4,0.0
473001,2678.0,24014.0,179.4,0.0
473002,2571.0,24014.0,179.4,0.0
473002,2544.0,24014.0,179.4,0.0
473019,2052.0,24074.0,179.4,0.0
473019,2011.0,24074.0,179.4,0.0
473019,1952.0,24074.0,179.4,0.0
473032,2135.0,24103.0,179.4,0.0
473033,2232.0,24103.0,179.4,0.0
473033,2261.0,24103.0,179.4,0.0
473050,1820.0,24163.0,179.4,0.0
473050,1850.0,24163.0,179.4,0.0
473051,1835.0,24163.0,179.4,0.0
473063,1708.0,24192.0,179.4,0.0
473064,1710.0,24192.0,179.4,0.0
473064,1708.0,24192.0,179.4,0.0
473077,2382.0,24221.0,179.4,0.0
473077,2308.0,24221.0,179.4,0.0
473077,2336.0,24221.0,179.4,0.0
473094,2405.0,24279.0,179.4,0.0
473095,2452.0,24279.0,179.4,0.0
473095,2390.0,24279.0,179.4,0.0
473108,1668.0,24337.0,179.4,0.0
473109,1753.0,24337.0,179.4,0.0
473109,1839.0,24337.0,179.4,0.0
473125,1725.0,24366.0,179.4,0.0
473125,1656.0,24366.0,179.4,0.0
473125,1637.0,24366.0,179.4,0.0
473139,2391.0,24424.0,179.1,0.0
473139,2363.0,24424.0,179.1,0.0
473140,2366.0,24424.0,179.1,0.0
473152,2402.0,24453.0,179.1,0.0
473153,2431.0,24453.0,179.1,0.0
473153,2451.0,24453.0,179.1,0.0
473171,2364.0,24510.0,179.1,0.0
473172,2448.0,24510.0,179.1,0.0
473172,2450.0,24510.0,179.1,0.0
473185,1888.0,24538.0,179.1,0.0
473185,1867.0,24538.0,179.1,0.0
473185,1880.0,24538.0,179.1,0.0
473199,2555.0,24595.0,179.1,0.0
473199,2484.0,24595.0,179.1,0.0
473199,2489.0,24595.0,179.1,0.0
473216,2601.0,24623.0,179.1,0.0
473216,2606.0,24623.0,179.1,0.0
473216,2583.0,24623.0,179.1,0.0
473230,1867.0,24678.0,179.1,0.0
473230,1948.0,24678.0,179.1,0.0
473230,1971.0,24678.0,179.1,0.0
473247,1528.0,24732.0,179.1,0.0
473248,1561.0,24732.0,179.1,0.0
473248,1559.0,24732.0,179.1,0.0
473260,1971.0,24759.0,179.1,0.0
473261,1910.0,24759.0,179.1,0.0
473261,1903.0,24759.0,179.1,0.0
473274,2233.0,24786.0,179.1,0.0
473274,2259.0,24786.0,179.1,0.0
473274,2263.0,24786.0,179.1,0.0
473292,2084.0,24838.0,179.1,0.0
473293,2165.0,24838.0,179.1,0.0
473293,2166.0,24838.0,179.1,0.0
473306,1430.0,24864.0,179.1,0.0
473306,1447.0,24864.0,179.1,0.0
473306,1444.0,24864.0,179.1,0.0
473320,2055.0,24915.0,179.1,0.0
473320,1985.0,24915.0,179.1,0.0
473321,1975.0,24915.0,179.1,0.0
473338,2335.0,24966.0,179.1,0.0
473338,2295.0,24966.0,179.1,0.0
473338,2248.0,24966.0,179.1,0.0
473351,1899.0,24992.0,179.1,0.0
473351,1992.0,24992.0,179.1,0.0
473351,2012.0,24992.0,179.1,0.0
473368,1642.0,25042.0,179.1,0.0
473369,1707.0,25042.0,179.1,0.0
473369,1742.0,25042.0,179.1,0.0
473382,1872.0,25067.0,179.1,0.0
473382,1795.0,25067.0,179.1,0.0
473382,1780.0,25067.0,179.1,0.0
473395,2330.0,25092.0,179.1,0.0
473395,2335.0,25092.0,179.1,0.0
473396,2351.0,25092.0,179.1,0.0
473414,2304.0,25142.0,179.1,0.0
473414,2323.0,25142.0,179.1,0.0
473414,2306.0,25142.0,179.1,0.0
473428,1571.0,25192.0,179.1,0.0
473428,1659.0,25192.0,179.1,0.0
473428,1675.0,25192.0,179.1,0.0
473441,1984.0,25217.0,179.1,0.0
473441,1914.0,25217.0,179.1,0.0
473442,1898.0,25217.0,179.1,0.0
473459,2284.0,25266.0,178.4,0.0
473459,2216.0,25266.0,178.4,0.0
473459,2188.0,25266.0,178.4,0.0
473472,2128.0,25291.0,178.4,0.0
473472,2207.0,25291.0,178.4,0.0
473472,2241.0,25291.0,178.4,0.0
473486,1644.0,25340.0,178.4,0.0
473487,1646.0,25340.0,178.4,0.0
473487,1633.0,25340.0,178.4,0.0
473503,1649.0,25364.0,178.4,0.0
473503,1591.0,25364.0,178.4,0.0
473504,1602.0,25364.0,178.4,0.0
473517,2338.0,25412.0,178.4,0.0
473517,2288.0,25412.0,178.4,0.0
473518,2295.0,25412.0,178.4,0.0
473534,2324.0,25436.0,178.4,0.0
473534,2356.0,25436.0,178.4,0.0
473534,2330.0,25436.0,178.4,0.0
473548,1610.0,25484.0,178.4,0.0
473548,1689.0,25484.0,178.4,0.0
473549,1734.0,25484.0,178.4,0.0
473561,1949.0,25507.0,178.4,0.0
473562,1862.0,25507.0,178.4,0.0
473562,1855.0,25507.0,178.4,0.0
473579,2636.0,25554.0,178.4,0.0
473579,2621.0,25554.0,178.4,0.0
473579,2585.0,25554.0,178.4,0.0
473592,2913.0,25578.0,178.4,0.0
473592,2979.0,25578.0,178.4,0.0
473593,2977.0,25578.0,178.4,0.0
473606,1446.0,25625.0,178.4,0.0
473607,1460.0,25625.0,178.4,0.0
473607,1392.0,25625.0,178.4,0.0
473623,1689.0,25648.0,178.4,0.0
473623,1654.0,25648.0,178.4,0.0
473624,1725.0,25648.0,178.4,0.0
473638,2367.0,25695.0,178.4,0.0
473638,2275.0,25695.0,178.4,0.0
473638,2207.0,25695.0,178.4,0.0
473654,2354.0,25718.0,178.4,0.0
473655,2430.0,25718.0,178.4,0.0
473655,2443.0,25718.0,178.4,0.0
473669,1755.0,25764.0,178.4,0.0
473669,1788.0,25764.0,178.4,0.0
473669,1823.0,25764.0,178.4,0.0
473682,1912.0,25787.0,178.4,0.0
473682,1855.0,25787.0,178.4,0.0
473683,1818.0,25787.0,178.4,0.0
473699,2183.0,25832.0,178.4,0.0
473700,2128.0,25832.0,178.4,0.0
473700,2153.0,25832.0,178.4,0.0
473713,2352.0,25855.0,178.4,0.0
473713,2386.0,25855.0,178.4,0.0
473713,2358.0,25855.0,178.4,0.0
473727,1692.0,25900.0,178.4,0.0
473727,1793.0,25900.0,178.4,0.0
473728,1804.0,25900.0,178.4,0.0
473744,1817.0,25923.0,178.4,0.0
473744,1757.0,25923.0,178.4,0.0
473744,1764.0,25923.0,178.4,0.0
473758,2581.0,25968.0,178.4,0.0
473758,2520.0,25968.0,178.4,0.0
473759,2512.0,25968.0,178.4,0.0
473776,2688.0,26012.0,178.4,0.0
473776,2701.0,26012.0,178.4,0.0
473777,2724.0,26012.0,178.4,0.0
473789,2160.0,26035.0,178.4,0.0
473790,2211.0,26035.0,178.4,0.0
473790,2209.0,26035.0,178.4,0.0
473803,1961.0,26057.0,178.4,0.0
473803,1934.0,26057.0,178.4,0.0
473803,1920.0,26057.0,178.4,0.0
473820,2175.0,26100.0,178.4,0.0
473820,2075.0,26100.0,178.4,0.0
473821,2068.0,26100.0,178.4,0.0
473833,2310.0,26121.0,178.4,0.0
473834,2340.0,26121.0,178.4,0.0
473834,2322.0,26121.0,178.4,0.0
473847,1566.0,26164.0,178.4,0.0
473848,1643.0,26164.0,178.4,0.0
473848,1667.0,26164.0,178.4,0.0
473865,1480.0,26205.0,178.4,0.0
473865,1439.0,26205.0,178.4,0.0
473865,1445.0,26205.0,178.4,0.0
473878,2217.0,26226.0,178.4,0.0
473878,2178.0,26226.0,178.4,0.0
473879,2159.0,26226.0,178.4,0.0
473896,2318.0,26266.0,178.4,0.0
473896,2314.0,26266.0,178.4,0.0
473896,2299.0,26266.0,178.4,0.0
473909,1767.0,26286.0,178.4,0.0
473910,1841.0,26286.0,178.4,0.0
473910,1852.0,26286.0,178.4,0.0
473922,1659.0,26306.0,178.4,0.0
473923,1609.0,26306.0,178.4,0.0
473923,1605.0,26306.0,178.4,0.0
473940,2020.0,26345.0,178.4,0.0
473941,1869.0,26345.0,178.4,0.0
473941,1842.0,26345.0,178.4,0.0
473954,2314.0,26384.0,178.4,0.0
473955,2326.0,26384.0,178.4,0.0
473955,2326.0,26384.0,178.4,0.0
473971,2084.0,26404.0,178.4,0.0
473972,2151.0,26404.0,178.4,0.0
473972,2159.0,26404.0,178.4,0.0
473985,1524.0,26443.0,178.4,0.0
473986,1543.0,26443.0,178.4,0.0
473986,1532.0,26443.0,178.4,0.0
473998,2233.0,26462.0,178.4,0.0
473999,2170.0,26462.0,178.4,0.0
473999,2176.0,26462.0,178.4,0.0
474017,2409.0,26501.0,178.4,0.0
474017,2356.0,26501.0,178.4,0.0
474018,2294.0,26501.0,178.4,0.0
474030,2006.0,26520.0,178.4,0.0
474031,2098.0,26520.0,178.4,0.0
474031,2132.0,26520.0,178.4,0.0
474044,1599.0,26559.0,178.4,0.0
474045,1548.0,26559.0,178.4,0.0
474045,1552.0,26559.0,178.4,0.0
474061,1929.0,26578.0,178.4,0.0
474062,1857.0,26578.0,178.4,0.0
474062,1828.0,26578.0,178.4,0.0
474075,2331.0,26617.0,178.4,0.0
474076,2322.0,26617.0,178.4,0.0
474076,2327.0,26617.0,178.4,0.0
474092,2224.0,26636.0,178.4,0.0
474093,2226.0,26636.0,178.4,0.0
474093,2215.0,26636.0,178.4,0.0
474106,1501.0,26674.0,178.4,0.0
474107,1567.0,26674.0,178.4,0.0
474107,1588.0,26674.0,178.4,0.0
474120,2081.0,26692.0,178.4,0.0
474120,2008.0,26692.0,178.4,0.0
474120,1990.0,26692.0,178.4,0.0
474138,2590.0,26730.0,167.1,0.0
474138,2559.0,26730.0,167.1,0.0
474139,2530.0,26730.0,167.1,0.0
474151,2799.0,26748.0,167.1,0.0
474152,2866.0,26748.0,167.1,0.0
474152,2911.0,26748.0,167.1,0.0
474165,1585.0,26785.0,167.1,0.0
474166,1555.0,26785.0,167.1,0.0
474166,1499.0,26785.0,167.1,0.0
474182,1708.0,26803.0,167.1,0.0
474182,1676.0,26803.0,167.1,0.0
474183,1716.0,26803.0,167.1,0.0
474196,2420.0,26840.0,167.1,0.0
474197,2332.0,26840.0,167.1,0.0
474197,2308.0,26840.0,167.1,0.0
474214,2367.0,26876.0,167.1,0.0
474214,2442.0,26876.0,167.1,0.0
474214,2425.0,26876.0,167.1,0.0
474227,1620.0,26895.0,167.1,0.0
474228,1673.0,26895.0,167.1,0.0
474228,1713.0,26895.0,167.1,0.0
474240,2040.0,26913.0,167.1,0.0
474241,1916.0,26913.0,167.1,0.0
474241,1879.0,26913.0,167.1,0.0
474259,2189.0,26950.0,167.1,0.0
474260,2118.0,26950.0,167.1,0.0
474260,2122.0,26950.0,167.1,0.0
474273,2429.0,26986.0,167.1,0.0
474274,2436.0,26986.0,167.1,0.0
474274,2448.0,26986.0,167.1,0.0
474287,1734.0,27004.0,167.1,0.0
474287,1791.0,27004.0,167.1,0.0
474287,1782.0,27004.0,167.1,0.0
474304,1724.0,27040.0,167.1,0.0
474305,1717.0,27040.0,167.1,0.0
474305,1755.0,27040.0,167.1,0.0
474317,2603.0,27058.0,167.1,0.0
474318,2534.0,27058.0,167.1,0.0
474318,2497.0,27058.0,167.1,0.0
474330,2371.0,27076.0,167.1,0.0
474331,2453.0,27076.0,167.1,0.0
474331,2469.0,27076.0,167.1,0.0
474348,2031.0,27111.0,167.1,0.0
474349,2103.0,27111.0,167.1,0.0
474349,2144.0,27111.0,167.1,0.0
474361,2087.0,27129.0,167.1,0.0
474362,2040.0,27129.0,167.1,0.0
474362,1962.0,27129.0,167.1,0.0
474380,2164.0,27164.0,167.1,0.0
474380,2105.0,27164.0,167.1,0.0
474380,2093.0,27164.0,167.1,0.0
474394,2384.0,27199.0,167.1,0.0
474395,2357.0,27199.0,167.1,0.0
474395,2393.0,27199.0,167.1,0.0
474408,1653.0,27216.0,167.1,0.0
474408,1732.0,27216.0,167.1,0.0
474408,1725.0,27216.0,167.1,0.0
474425,1438.0,27249.0,167.1,0.0
474425,1459.0,27249.0,167.1,0.0
474426,1502.0,27249.0,167.1,0.0
474438,2197.0,27266.0,167.1,0.0
474439,2115.0,27266.0,167.1,0.0
474439,2075.0,27266.0,167.1,0.0
474451,2135.0,27282.0,167.1,0.0
474452,2199.0,27282.0,167.1,0.0
474452,2205.0,27282.0,167.1,0.0
474469,1813.0,27313.0,167.1,0.0
474470,1886.0,27313.0,167.1,0.0
474470,1924.0,27313.0,167.1,0.0
474483,1550.0,27345.0,167.1,0.0
474484,1520.0,27345.0,167.1,0.0
474484,1490.0,27345.0,167.1,0.0
474500,1917.0,27360.0,167.1,0.0
474501,1863.0,27360.0,167.1,0.0
474501,1859.0,27360.0,167.1,0.0
474515,2387.0,27391.0,176.0,0.0
474515,2353.0,27391.0,176.0,0.0
474515,2335.0,27391.0,176.0,0.0
474528,1698.0,27406.0,176.0,0.0
474528,1806.0,27406.0,176.0,0.0
474528,1800.0,27406.0,176.0,0.0
474546,1505.0,27437.0,176.0,0.0
474546,1532.0,27437.0,176.0,0.0
474546,1580.0,27437.0,176.0,0.0
474559,2182.0,27452.0,176.0,0.0
474559,2092.0,27452.0,176.0,0.0
474560,2045.0,27452.0,176.0,0.0
474573,2333.0,27483.0,176.0,0.0
474573,2383.0,27483.0,176.0,0.0
474574,2404.0,27483.0,176.0,0.0
474590,2025.0,27498.0,176.0,0.0
474590,2078.0,27498.0,176.0,0.0
474590,2075.0,27498.0,176.0,0.0
474604,1599.0,27528.0,176.0,0.0
474604,1610.0,27528.0,176.0,0.0
474605,1595.0,27528.0,176.0,0.0
474621,1944.0,27543.0,176.0,0.0
474621,1868.0,27543.0,176.0,0.0
474621,1863.0,27543.0,176.0,0.0
474635,2364.0,27573.0,176.0,0.0
474635,2340.0,27573.0,176.0,0.0
474635,2307.0,27573.0,176.0,0.0
474648,1778.0,27588.0,176.0,0.0
474648,1862.0,27588.0,176.0,0.0
474649,1890.0,27588.0,176.0,0.0
474666,1516.0,27618.0,176.0,0.0
474666,1527.0,27618.0,176.0,0.0
474666,1549.0,27618.0,176.0,0.0
474679,2161.0,27632.0,176.0,0.0
474679,2081.0,27632.0,176.0,0.0
474679,2055.0,27632.0,176.0,0.0
474693,2374.0,27662.0,176.0,0.0
474693,2401.0,27662.0,176.0,0.0
474694,2424.0,27662.0,176.0,0.0
474710,2642.0,27677.0,176.0,0.0
474710,2706.0,27677.0,176.0,0.0
474710,2736.0,27677.0,176.0,0.0
474724,2052.0,27706.0,176.0,0.0
474724,1999.0,27706.0,176.0,0.0
474724,1973.0,27706.0,176.0,0.0
474741,1598.0,27735.0,176.0,0.0
474742,1548.0,27735.0,176.0,0.0
474742,1544.0,27735.0,176.0,0.0
474755,2456.0,27750.0,176.0,0.0
474755,2436.0,27750.0,176.0,0.0
474755,2437.0,27750.0,176.0,0.0
474768,1770.0,27764.0,176.0,0.0
474768,1849.0,27764.0,176.0,0.0
474768,1822.0,27764.0,176.0,0.0
474785,1519.0,27793.0,176.0,0.0
474786,1545.0,27793.0,176.0,0.0
474786,1632.0,27793.0,176.0,0.0
474799,2203.0,27807.0,176.0,0.0
474799,2100.0,27807.0,176.0,0.0
474799,2063.0,27807.0,176.0,0.0
474813,2385.0,27835.0,176.0,0.0
474813,2442.0,27835.0,176.0,0.0
474813,2449.0,27835.0,176.0,0.0
474829,2038.0,27850.0,176.0,0.0
474830,2078.0,27850.0,176.0,0.0
474830,2134.0,27850.0,176.0,0.0
474844,1683.0,27878.0,176.0,0.0
474844,1673.0,27878.0,176.0,0.0
474844,1641.0,27878.0,176.0,0.0
474861,1938.0,27907.0,176.0,0.0
474862,1885.0,27907.0,176.0,0.0
474862,1907.0,27907.0,176.0,0.0
474874,2647.0,27921.0,170.5,0.0
474875,2606.0,27921.0,170.5,0.0
474875,2595.0,27921.0,170.5,0.0
474888,2061.0,27935.0,170.5,0.0
474888,2173.0,27935.0,170.5,0.0
474888,2163.0,27935.0,170.5,0.0
474905,1834.0,27964.0,170.5,0.0
474906,1870.0,27964.0,170.5,0.0
474906,1914.0,27964.0,170.5,0.0
474919,2504.0,27978.0,170.5,0.0
474919,2406.0,27978.0,170.5,0.0
474919,2360.0,27978.0,170.5,0.0
474933,2515.0,28006.0,170.5,0.0
474933,2551.0,28006.0,170.5,0.0
474934,2591.0,28006.0,170.5,0.0
474934,2570.0,28006.0,170.5,0.0
474951,2247.0,28033.0,170.5,0.0
474952,2302.0,28033.0,170.5,0.0
474952,2336.0,28033.0,170.5,0.0
474964,1522.0,28047.0,170.5,0.0
474965,1527.0,28047.0,170.5,0.0
474965,1502.0,28047.0,170.5,0.0
474982,1597.0,28072.0,170.5,0.0
474983,1564.0,28072.0,170.5,0.0
474983,1571.0,28072.0,170.5,0.0
474995,2310.0,28085.0,170.5,0.0
474996,2304.0,28085.0,170.5,0.0
474996,2272.0,28085.0,170.5,0.0
475009,1841.0,28097.0,170.5,0.0
475009,1918.0,28097.0,170.5,0.0
475009,1902.0,28097.0,170.5,0.0
475026,1491.0,28122.0,170.5,0.0
475027,1551.0,28122.0,170.5,0.0
475027,1619.0,28122.0,170.5,0.0
475039,2009.0,28134.0,170.5,0.0
475040,1904.0,28134.0,170.5,0.0
475040,1865.0,28134.0,170.5,0.0
475053,2306.0,28157.0,170.5,0.0
475054,2374.0,28157.0,170.5,0.0
475054,2388.0,28157.0,170.5,0.0
475071,2137.0,28181.0,170.5,0.0
475071,2174.0,28181.0,170.5,0.0
475071,2196.0,28181.0,170.5,0.0
475084,1523.0,28193.0,170.5,0.0
475084,1536.0,28193.0,170.5,0.0
475085,1512.0,28193.0,170.5,0.0
475102,1670.0,28216.0,170.5,0.0
475102,1612.0,28216.0,170.5,0.0
475102,1643.0,28216.0,170.5,0.0
475115,2422.0,28228.0,170.5,0.0
475116,2352.0,28228.0,170.5,0.0
475116,2325.0,28228.0,170.5,0.0
475128,1877.0,28240.0,170.5,0.0
475129,1967.0,28240.0,170.5,0.0
475129,1981.0,28240.0,170.5,0.0
475146,1568.0,28264.0,170.5,0.0
475146,1600.0,28264.0,170.5,0.0
475147,1663.0,28264.0,170.5,0.0
475160,1977.0,28287.0,170.5,0.0
475160,1882.0,28287.0,170.5,0.0
475161,1833.0,28287.0,170.5,0.0
475177,2321.0,28299.0,170.5,0.0
475177,2296.0,28299.0,170.5,0.0
475177,2306.0,28299.0,170.5,0.0
475191,2247.0,28322.0,170.5,0.0
475191,2273.0,28322.0,170.5,0.0
475191,2272.0,28322.0,170.5,0.0
475204,1607.0,28334.0,170.5,0.0
475204,1638.0,28334.0,170.5,0.0
475204,1613.0,28334.0,170.5,0.0
475222,1563.0,28357.0,170.5,0.0
475223,1499.0,28357.0,170.5,0.0
475223,1526.0,28357.0,170.5,0.0
475236,2391.0,28369.0,162.4,0.0
475236,2332.0,28369.0,162.4,0.0
475236,2310.0,28369.0,162.4,0.0
475250,2062.0,28391.0,162.4,0.0
475250,2122.0,28391.0,162.4,0.0
475250,2147.0,28391.0,162.4,0.0
475266,1615.0,28403.0,162.4,0.0
475267,1658.0,28403.0,162.4,0.0
475267,1695.0,28403.0,162.4,0.0
475280,1937.0,28426.0,162.4,0.0
475281,1861.0,28426.0,162.4,0.0
475281,1840.0,28426.0,162.4,0.0
475294,3004.0,28437.0,162.4,0.0
475294,3022.0,28437.0,162.4,0.0
475294,3082.0,28437.0,162.4,0.0
475295,3136.0,28437.0,162.4,0.0
475312,2734.0,28459.0,162.4,0.0
475312,2703.0,28459.0,162.4,0.0
475313,2678.0,28459.0,162.4,0.0
475326,1352.0,28471.0,162.4,0.0
475326,1457.0,28471.0,162.4,0.0
475326,1444.0,28471.0,162.4,0.0
475343,1567.0,28493.0,162.4,0.0
475344,1540.0,28493.0,162.4,0.0
475344,1614.0,28493.0,162.4,0.0
475357,2326.0,28504.0,162.4,0.0
475357,2232.0,28504.0,162.4,0.0
475357,2161.0,28504.0,162.4,0.0
475371,2205.0,28525.0,162.4,0.0
475371,2303.0,28525.0,162.4,0.0
475371,2358.0,28525.0,162.4,0.0
475387,1814.0,28537.0,162.4,0.0
475388,1833.0,28537.0,162.4,0.0
475388,1861.0,28537.0,162.4,0.0
475401,1798.0,28559.0,162.4,0.0
475402,1765.0,28559.0,162.4,0.0
475402,1714.0,28559.0,162.4,0.0
475415,2441.0,28570.0,162.4,0.0
475415,2429.0,28570.0,162.4,0.0
475415,2476.0,28570.0,162.4,0.0
475432,2520.0,28592.0,162.4,0.0
475433,2523.0,28592.0,162.4,0.0
475433,2477.0,28592.0,162.4,0.0
475445,1701.0,28603.0,162.4,0.0
475446,1801.0,28603.0,162.4,0.0
475446,1836.0,28603.0,162.4,0.0
475463,1827.0,28625.0,162.4,0.0
475464,1744.0,28625.0,162.4,0.0
475464,1754.0,28625.0,162.4,0.0
475476,2664.0,28636.0,162.4,0.0
475477,2640.0,28636.0,162.4,0.0
475477,2609.0,28636.0,162.4,0.0
475490,2488.0,28657.0,162.4,0.0
475491,2518.0,28657.0,162.4,0.0
475491,2578.0,28657.0,162.4,0.0
475507,2082.0,28668.0,162.4,0.0
475507,2138.0,28668.0,162.4,0.0
475508,2124.0,28668.0,162.4,0.0
475521,1958.0,28689.0,162.4,0.0
475521,1913.0,28689.0,162.4,0.0
475522,1913.0,28689.0,162.4,0.0
475534,2512.0,28700.0,162.4,0.0
475535,2468.0,28700.0,162.4,0.0
475535,2472.0,28700.0,162.4,0.0
475552,2301.0,28720.0,162.4,0.0
475552,2346.0,28720.0,162.4,0.0
475552,2311.0,28720.0,162.4,0.0
475565,1485.0,28730.0,162.4,0.0
475565,1472.0,28730.0,162.4,0.0
475566,1559.0,28730.0,162.4,0.0
475583,1542.0,28749.0,162.4,0.0
475583,1477.0,28749.0,162.4,0.0
475583,1469.0,28749.0,162.4,0.0
475596,2278.0,28759.0,162.4,0.0
475596,2263.0,28759.0,162.4,0.0
475597,2261.0,28759.0,162.4,0.0
475610,2088.0,28776.0,162.4,0.0
475610,2110.0,28776.0,162.4,0.0
475611,2141.0,28776.0,162.4,0.0
475626,1631.0,28786.0,162.4,0.0
475627,1703.0,28786.0,162.4,0.0
475627,1715.0,28786.0,162.4,0.0
475641,1755.0,28803.0,162.4,0.0
475641,1687.0,28803.0,162.4,0.0
475641,1684.0,28803.0,162.4,0.0
475658,2125.0,28821.0,162.4,0.0
475659,2041.0,28821.0,162.4,0.0
475659,2001.0,28821.0,162.4,0.0
475671,2213.0,28830.0,162.4,0.0
475672,2274.0,28830.0,162.4,0.0
475672,2292.0,28830.0,162.4,0.0
475685,1532.0,28839.0,162.4,0.0
475685,1549.0,28839.0,162.4,0.0
475685,1526.0,28839.0,162.4,0.0
475703,1495.0,28856.0,162.4,0.0
475704,1504.0,28856.0,162.4,0.0
475704,1520.0,28856.0,162.4,0.0
475717,2235.0,28865.0,162.4,0.0
475719,2049.0,28865.0,162.4,0.0
475719,1974.0,28865.0,162.4,0.0
475719,1981.0,28865.0,162.4,0.0
475733,2380.0,28882.0,162.4,0.0
475734,2360.0,28882.0,162.4,0.0
475734,2364.0,28882.0,162.4,0.0
475751,2200.0,28899.0,162.4,0.0
475751,2273.0,28899.0,162.4,0.0
475751,2279.0,28899.0,162.4,0.0
475764,1528.0,28908.0,162.4,0.0
475765,1550.0,28908.0,162.4,0.0
475765,1561.0,28908.0,162.4,0.0
475782,1686.0,28926.0,162.4,0.0
475782,1627.0,28926.0,162.4,0.0
475782,1609.0,28926.0,162.4,0.0
475795,2429.0,28934.0,144.8,0.0
475795,2413.0,28934.0,144.8,0.0
475795,2422.0,28934.0,144.8,0.0
475809,2116.0,28951.0,144.8,0.0
475809,2172.0,28951.0,144.8,0.0
475810,2167.0,28951.0,144.8,0.0
475828,1791.0,28969.0,144.8,0.0
475828,1886.0,28969.0,144.8,0.0
475828,1931.0,28969.0,144.8,0.0
475841,1736.0,28977.0,144.8,0.0
475842,1651.0,28977.0,144.8,0.0
475842,1638.0,28977.0,144.8,0.0
475854,2340.0,28986.0,144.8,0.0
475855,2341.0,28986.0,144.8,0.0
475855,2341.0,28986.0,144.8,0.0
475872,2351.0,29004.0,144.8,0.0
475873,2368.0,29004.0,144.8,0.0
475873,2377.0,29004.0,144.8,0.0
475885,1645.0,29012.0,144.8,0.0
475886,1719.0,29012.0,144.8,0.0
475886,1707.0,29012.0,144.8,0.0
475900,2590.0,29029.0,144.8,0.0
475900,2538.0,29029.0,144.8,0.0
475901,2537.0,29029.0,144.8,0.0
475901,2531.0,29029.0,144.8,0.0
475918,2508.0,29046.0,144.8,0.0
475918,2349.0,29046.0,144.8,0.0
475919,2315.0,29046.0,144.8,0.0
475931,2027.0,29054.0,144.8,0.0
475932,2106.0,29054.0,144.8,0.0
475932,2088.0,29054.0,144.8,0.0
475949,2085.0,29071.0,144.8,0.0
475950,2136.0,29071.0,144.8,0.0
475950,2220.0,29071.0,144.8,0.0
475962,1609.0,29080.0,144.8,0.0
475963,1549.0,29080.0,144.8,0.0
475963,1465.0,29080.0,144.8,0.0
475976,2337.0,29088.0,144.8,0.0
475976,2359.0,29088.0,144.8,0.0
475976,2422.0,29088.0,144.8,0.0
475993,2500.0,29105.0,144.8,0.0
475994,2430.0,29105.0,144.8,0.0
475994,2393.0,29105.0,144.8,0.0
476007,1861.0,29122.0,144.8,0.0
476008,2021.0,29122.0,144.8,0.0
476008,2019.0,29122.0,144.8,0.0
476024,1616.0,29130.0,144.8,0.0
476025,1623.0,29130.0,144.8,0.0
476025,1687.0,29130.0,144.8,0.0
476026,1810.0,29130.0,144.8,0.0
476039,2123.0,29147.0,144.8,0.0
476040,1966.0,29147.0,144.8,0.0
476040,1918.0,29147.0,144.8,0.0
476053,2570.0,29155.0,144.8,0.0
476053,2634.0,29155.0,144.8,0.0
476053,2618.0,29155.0,144.8,0.0
476071,2547.0,29173.0,144.8,0.0
476072,2569.0,29173.0,144.8,0.0
476072,2607.0,29173.0,144.8,0.0
476085,1926.0,29181.0,144.8,0.0
476085,1965.0,29181.0,144.8,0.0
476085,1906.0,29181.0,144.8,0.0
476099,2304.0,29198.0,144.8,0.0
476099,2281.0,29198.0,144.8,0.0
476099,2329.0,29198.0,144.8,0.0
476115,2734.0,29206.0,144.8,0.0
476116,2620.0,29206.0,144.8,0.0
476116,2586.0,29206.0,144.8,0.0
476129,2276.0,29223.0,144.8,0.0
476130,2398.0,29223.0,144.8,0.0
476130,2404.0,29223.0,144.8,0.0
476143,1583.0,29231.0,144.8,0.0
476143,1560.0,29231.0,144.8,0.0
476143,1565.0,29231.0,144.8,0.0
476161,1750.0,29247.0,144.8,0.0
476161,1682.0,29247.0,144.8,0.0
476161,1635.0,29247.0,144.8,0.0
476174,2249.0,29254.0,144.8,0.0
476175,2264.0,29254.0,144.8,0.0
476175,2306.0,29254.0,144.8,0.0
476192,2307.0,29269.0,144.8,0.0
476192,2286.0,29269.0,144.8,0.0
476193,2239.0,29269.0,144.8,0.0
476206,1606.0,29283.0,144.8,0.0
476207,1716.0,29283.0,144.8,0.0
476207,1739.0,29283.0,144.8,0.0
476219,1836.0,29290.0,144.8,0.0
476220,1740.0,29290.0,144.8,0.0
476220,1751.0,29290.0,144.8,0.0
476237,2216.0,29303.0,144.8,0.0
476237,2151.0,29303.0,144.8,0.0
476237,2080.0,29303.0,144.8,0.0
476250,2094.0,29310.0,144.8,0.0
476250,2169.0,29310.0,144.8,0.0
476251,2223.0,29310.0,144.8,0.0
476263,1509.0,29317.0,144.8,0.0
476264,1479.0,29317.0,144.8,0.0
476264,1461.0,29317.0,144.8,0.0
476281,1668.0,29331.0,144.8,0.0
476281,1639.0,29331.0,144.8,0.0
476281,1639.0,29331.0,144.8,0.0
476294,2354.0,29338.0,134.9,0.0
476295,2309.0,29338.0,134.9,0.0
476295,2306.0,29338.0,134.9,0.0
476312,2343.0,29351.0,134.9,0.0
476312,2384.0,29351.0,134.9,0.0
476312,2358.0,29351.0,134.9,0.0
476326,1650.0,29365.0,134.9,0.0
476327,1754.0,29365.0,134.9,0.0
476327,1806.0,29365.0,134.9,0.0
476340,1845.0,29372.0,134.9,0.0
476340,1750.0,29372.0,134.9,0.0
476340,1706.0,29372.0,134.9,0.0
476357,2151.0,29385.0,134.9,0.0
476358,2098.0,29385.0,134.9,0.0
476358,2090.0,29385.0,134.9,0.0
476370,2236.0,29392.0,134.9,0.0
476371,2258.0,29392.0,134.9,0.0
476371,2293.0,29392.0,134.9,0.0
476384,1545.0,29399.0,134.9,0.0
476384,1569.0,29399.0,134.9,0.0
476384,1531.0,29399.0,134.9,0.0
476401,1651.0,29413.0,134.9,0.0
476401,1610.0,29413.0,134.9,0.0
476402,1641.0,29413.0,134.9,0.0
476415,2424.0,29426.0,134.9,0.0
476416,2370.0,29426.0,134.9,0.0
476416,2315.0,29426.0,134.9,0.0
476432,2366.0,29433.0,134.9,0.0
476432,2441.0,29433.0,134.9,0.0
476432,2422.0,29433.0,134.9,0.0
476446,1672.0,29446.0,134.9,0.0
476447,1790.0,29446.0,134.9,0.0
476448,1864.0,29446.0,134.9,0.0
476448,1907.0,29446.0,134.9,0.0
476461,1756.0,29453.0,134.9,0.0
476461,1679.0,29453.0,134.9,0.0
476461,1642.0,29453.0,134.9,0.0
476478,1982.0,29467.0,134.9,0.0
476479,1925.0,29467.0,134.9,0.0
476479,1918.0,29467.0,134.9,0.0
476492,2328.0,29473.0,134.9,0.0
476492,2328.0,29473.0,134.9,0.0
476492,2332.0,29473.0,134.9,0.0
476506,1855.0,29487.0,134.9,0.0
476506,1936.0,29487.0,134.9,0.0
476507,1951.0,29487.0,134.9,0.0
476522,2283.0,29493.0,134.9,0.0
476523,2268.0,29493.0,134.9,0.0
476523,2315.0,29493.0,134.9,0.0
476537,2499.0,29507.0,134.9,0.0
476537,2377.0,29507.0,134.9,0.0
476537,2306.0,29507.0,134.9,0.0
476554,2239.0,29513.0,134.9,0.0
476554,2302.0,29513.0,134.9,0.0
476554,2311.0,29513.0,134.9,0.0
476568,2026.0,29527.0,134.9,0.0
476568,2055.0,29527.0,134.9,0.0
476568,2082.0,29527.0,134.9,0.0
476581,1641.0,29533.0,134.9,0.0
476581,1621.0,29533.0,134.9,0.0
476582,1569.0,29533.0,134.9,0.0
476599,1957.0,29547.0,134.9,0.0
476599,1871.0,29547.0,134.9,0.0
476599,1913.0,29547.0,134.9,0.0
476612,2438.0,29553.0,138.1,0.0
476612,2431.0,29553.0,138.1,0.0
476613,2389.0,29553.0,138.1,0.0
476626,1779.0,29566.0,138.1,0.0
476627,1907.0,29566.0,138.1,0.0
476627,1973.0,29566.0,138.1,0.0
476643,1614.0,29573.0,138.1,0.0
476644,1597.0,29573.0,138.1,0.0
476644,1625.0,29573.0,138.1,0.0
476657,2310.0,29586.0,138.1,0.0
476658,2234.0,29586.0,138.1,0.0
476658,2202.0,29586.0,138.1,0.0
476675,2563.0,29599.0,138.1,0.0
476676,2522.0,29599.0,138.1,0.0
476676,2522.0,29599.0,138.1,0.0
476689,2368.0,29606.0,138.1,0.0
476689,2414.0,29606.0,138.1,0.0
476689,2413.0,29606.0,138.1,0.0
476702,1902.0,29613.0,138.1,0.0
476702,1910.0,29613.0,138.1,0.0
476703,1892.0,29613.0,138.1,0.0
476719,2185.0,29626.0,138.1,0.0
476720,2105.0,29626.0,138.1,0.0
476720,2099.0,29626.0,138.1,0.0
476733,2743.0,29633.0,138.1,0.0
476733,2726.0,29633.0,138.1,0.0
476733,2699.0,29633.0,138.1,0.0
476747,2036.0,29645.0,138.1,0.0
476747,2142.0,29645.0,138.1,0.0
476748,2161.0,29645.0,138.1,0.0
476765,1552.0,29657.0,138.1,0.0
476765,1577.0,29657.0,138.1,0.0
476765,1623.0,29657.0,138.1,0.0
476778,1951.0,29663.0,138.1,0.0
476779,1889.0,29663.0,138.1,0.0
476779,1836.0,29663.0,138.1,0.0
476796,2169.0,29674.0,138.1,0.0
476796,2124.0,29674.0,138.1,0.0
476797,2109.0,29674.0,138.1,0.0
476809,2071.0,29679.0,138.1,0.0
476810,2127.0,29679.0,138.1,0.0
476810,2132.0,29679.0,138.1,0.0
476822,1435.0,29685.0,138.1,0.0
476823,1448.0,29685.0,138.1,0.0
476823,1438.0,29685.0,138.1,0.0
476840,1659.0,29695.0,138.1,0.0
476840,1585.0,29695.0,138.1,0.0
476841,1604.0,29695.0,138.1,0.0
476854,2323.0,29705.0,138.1,0.0
476854,2294.0,29705.0,138.1,0.0
476855,2261.0,29705.0,138.1,0.0
476867,1825.0,29709.0,138.1,0.0
476868,1919.0,29709.0,138.1,0.0
476868,1928.0,29709.0,138.1,0.0
476885,1537.0,29719.0,138.1,0.0
476885,1582.0,29719.0,138.1,0.0
476885,1614.0,29719.0,138.1,0.0
476898,1992.0,29724.0,138.1,0.0
476898,1913.0,29724.0,138.1,0.0
476899,1878.0,29724.0,138.1,0.0
476916,2260.0,29734.0,138.1,0.0
476916,2212.0,29734.0,138.1,0.0
476916,2196.0,29734.0,138.1,0.0
476929,2142.0,29739.0,138.1,0.0
476930,2178.0,29739.0,138.1,0.0
476930,2179.0,29739.0,138.1,0.0
476943,1509.0,29748.0,138.1,0.0
476944,1547.0,29748.0,138.1,0.0
476944,1540.0,29748.0,138.1,0.0
476960,1689.0,29753.0,138.1,0.0
476960,1624.0,29753.0,138.1,0.0
476961,1636.0,29753.0,138.1,0.0
476974,2370.0,29764.0,138.1,0.0
476975,2315.0,29764.0,138.1,0.0
476975,2294.0,29764.0,138.1,0.0
476991,2272.0,29769.0,138.1,0.0
476991,2335.0,29769.0,138.1,0.0
476991,2341.0,29769.0,138.1,0.0
477005,1600.0,29778.0,138.1,0.0
477005,1648.0,29778.0,138.1,0.0
477005,1663.0,29778.0,138.1,0.0
477018,2004.0,29783.0,138.1,0.0
477018,1938.0,29783.0,138.1,0.0
477019,1924.0,29783.0,138.1,0.0
477036,2212.0,29793.0,138.1,0.0
477037,2144.0,29793.0,138.1,0.0
477037,2120.0,29793.0,138.1,0.0
477050,2286.0,29798.0,138.1,0.0
477050,2321.0,29798.0,138.1,0.0
477050,2339.0,29798.0,138.1,0.0
477064,1610.0,29809.0,138.1,0.0
477065,1658.0,29809.0,138.1,0.0
477065,1686.0,29809.0,138.1,0.0
477081,1497.0,29814.0,138.1,0.0
477082,1481.0,29814.0,138.1,0.0
477082,1465.0,29814.0,138.1,0.0
477095,2287.0,29824.0,138.1,0.0
477096,2213.0,29824.0,138.1,0.0
477096,2220.0,29824.0,138.1,0.0
477113,2384.0,29834.0,138.1,0.0
477113,2392.0,29834.0,138.1,0.0
477113,2359.0,29834.0,138.1,0.0
477126,1744.0,29839.0,138.1,0.0
477127,1831.0,29839.0,138.1,0.0
477127,1838.0,29839.0,138.1,0.0
477139,1830.0,29844.0,138.1,0.0
477140,1749.0,29844.0,138.1,0.0
477140,1721.0,29844.0,138.1,0.0
477158,2724.0,29855.0,138.1,0.0
477158,2684.0,29855.0,138.1,0.0
477158,2670.0,29855.0,138.1,0.0
477171,2938.0,29860.0,138.1,0.0
477172,2916.0,29860.0,138.1,0.0
477172,2887.0,29860.0,138.1,0.0
477185,1392.0,29870.0,138.1,0.0
477186,1472.0,29870.0,138.1,0.0
477186,1434.0,29870.0,138.1,0.0
477203,1585.0,29880.0,138.1,0.0
477203,1587.0,29880.0,138.1,0.0
477204,1649.0,29880.0,138.1,0.0
477216,2183.0,29885.0,138.1,0.0
477217,2093.0,29885.0,138.1,0.0
477217,2057.0,29885.0,138.1,0.0
477234,2362.0,29896.0,138.1,0.0
477235,2401.0,29896.0,138.1,0.0
477235,2409.0,29896.0,138.1,0.0
477247,1988.0,29901.0,138.1,0.0
477248,2019.0,29901.0,138.1,0.0
477248,2044.0,29901.0,138.1,0.0
477261,1702.0,29907.0,138.1,0.0
477261,1689.0,29907.0,138.1,0.0
477261,1651.0,29907.0,138.1,0.0
477279,1901.0,29917.0,138.1,0.0
477280,1808.0,29917.0,138.1,0.0
477280,1836.0,29917.0,138.1,0.0
477293,2547.0,29928.0,160.2,0.0
477294,2497.0,29928.0,160.2,0.0
477294,2457.0,29928.0,160.2,0.0
477307,2020.0,29933.0,160.2,0.0
477307,2126.0,29933.0,160.2,0.0
477307,2147.0,29933.0,160.2,0.0
477324,1814.0,29945.0,160.2,0.0
477325,1841.0,29945.0,160.2,0.0
477325,1886.0,29945.0,160.2,0.0
477337,2367.0,29950.0,160.2,0.0
477338,2302.0,29950.0,160.2,0.0
477338,2261.0,29950.0,160.2,0.0
477352,2678.0,29961.0,160.2,0.0
477352,2711.0,29961.0,160.2,0.0
477353,2731.0,29961.0,160.2,0.0
477369,2475.0,29967.0,160.2,0.0
477369,2521.0,29967.0,160.2,0.0
477369,2508.0,29967.0,160.2,0.0
477383,1730.0,29978.0,160.2,0.0
477384,1754.0,29978.0,160.2,0.0
477384,1774.0,29978.0,160.2,0.0
477400,1735.0,29983.0,160.2,0.0
477401,1659.0,29983.0,160.2,0.0
477401,1652.0,29983.0,160.2,0.0
477414,2348.0,29992.0,160.2,0.0
477415,2301.0,29992.0,160.2,0.0
477415,2270.0,29992.0,160.2,0.0
477427,1950.0,29997.0,160.2,0.0
477428,2015.0,29997.0,160.2,0.0
477428,2039.0,29997.0,160.2,0.0
477445,1602.0,30006.0,160.2,0.0
477445,1657.0,30006.0,160.2,0.0
477446,1680.0,30006.0,160.2,0.0
477458,1866.0,30010.0,160.2,0.0
477459,1791.0,30010.0,160.2,0.0
477459,1765.0,30010.0,160.2,0.0
477472,2327.0,30019.0,160.2,0.0
477473,2318.0,30019.0,160.2,0.0
477473,2328.0,30019.0,160.2,0.0
477489,2115.0,30023.0,160.2,0.0
477489,2165.0,30023.0,160.2,0.0
477490,2154.0,30023.0,160.2,0.0
477503,1462.0,30030.0,160.2,0.0
477503,1510.0,30030.0,160.2,0.0
477504,1523.0,30030.0,160.2,0.0
477520,1685.0,30034.0,160.2,0.0
477520,1603.0,30034.0,160.2,0.0
477520,1592.0,30034.0,160.2,0.0
477534,2336.0,30042.0,160.2,0.0
477534,2311.0,30042.0,160.2,0.0
477535,2298.0,30042.0,160.2,0.0
477547,1933.0,30046.0,160.2,0.0
477547,2004.0,30046.0,160.2,0.0
477548,2015.0,30046.0,160.2,0.0
477565,1611.0,30054.0,160.2,0.0
477565,1668.0,30054.0,160.2,0.0
477565,1698.0,30054.0,160.2,0.0
477578,1954.0,30058.0,160.2,0.0
477578,1874.0,30058.0,160.2,0.0
477578,1852.0,30058.0,160.2,0.0
477592,2374.0,30067.0,160.2,0.0
477592,2354.0,30067.0,160.2,0.0
477593,2383.0,30067.0,160.2,0.0
477608,2134.0,30071.0,160.2,0.0
477609,2193.0,30071.0,160.2,0.0
477609,2207.0,30071.0,160.2,0.0
477623,1514.0,30079.0,160.2,0.0
477623,1519.0,30079.0,160.2,0.0
477623,1539.0,30079.0,160.2,0.0
477639,1810.0,30083.0,160.2,0.0
477640,1740.0,30083.0,160.2,0.0
477640,1730.0,30083.0,160.2,0.0
477653,2455.0,30091.0,176.6,0.0
477654,2409.0,30091.0,176.6,0.0
477654,2402.0,30091.0,176.6,0.0
477667,1913.0,30096.0,176.6,0.0
477667,1993.0,30096.0,176.6,0.0
477667,1985.0,30096.0,176.6,0.0
477684,1596.0,30104.0,176.6,0.0
477685,1642.0,30104.0,176.6,0.0
477685,1680.0,30104.0,176.6,0.0
477697,1991.0,30108.0,176.6,0.0
477698,1902.0,30108.0,176.6,0.0
477698,1878.0,30108.0,176.6,0.0
477712,2368.0,30117.0,176.6,0.0
477712,2392.0,30117.0,176.6,0.0
477712,2411.0,30117.0,176.6,0.0
477728,2128.0,30121.0,176.6,0.0
477729,2197.0,30121.0,176.6,0.0
477729,2199.0,30121.0,176.6,0.0
477742,1825.0,30129.0,176.6,0.0
477743,1914.0,30129.0,176.6,0.0
477744,1978.0,30129.0,176.6,0.0
477744,1973.0,30129.0,176.6,0.0
477761,2190.0,30137.0,176.6,0.0
477762,2142.0,30137.0,176.6,0.0
477762,2141.0,30137.0,176.6,0.0
477775,2062.0,30141.0,176.6,0.0
477775,1998.0,30141.0,176.6,0.0
477775,1960.0,30141.0,176.6,0.0
477788,2116.0,30145.0,176.6,0.0
477788,2177.0,30145.0,176.6,0.0
477789,2265.0,30145.0,176.6,0.0
477806,1763.0,30153.0,176.6,0.0
477806,1838.0,30153.0,176.6,0.0
477806,1832.0,30153.0,176.6,0.0
477819,1841.0,30157.0,176.6,0.0
477819,1786.0,30157.0,176.6,0.0
477819,1773.0,30157.0,176.6,0.0
477833,2422.0,30165.0,176.6,0.0
477833,2393.0,30165.0,176.6,0.0
477833,2404.0,30165.0,176.6,0.0
477850,2381.0,30174.0,176.6,0.0
477851,2438.0,30174.0,176.6,0.0
477851,2405.0,30174.0,176.6,0.0
477863,1628.0,30178.0,176.6,0.0
477864,1703.0,30178.0,176.6,0.0
477864,1715.0,30178.0,176.6,0.0
477881,1665.0,30187.0,176.6,0.0
477882,1618.0,30187.0,176.6,0.0
477882,1626.0,30187.0,176.6,0.0
477895,2467.0,30191.0,176.6,0.0
477895,2439.0,30191.0,176.6,0.0
477895,2423.0,30191.0,176.6,0.0
477908,2316.0,30196.0,176.6,0.0
477908,2372.0,30196.0,176.6,0.0
477908,2377.0,30196.0,176.6,0.0
477925,2058.0,30205.0,176.6,0.0
477926,2123.0,30205.0,176.6,0.0
477926,2152.0,30205.0,176.6,0.0
477939,2028.0,30214.0,176.6,0.0
477940,1963.0,30214.0,176.6,0.0
477940,1961.0,30214.0,176.6,0.0
477953,2703.0,30218.0,176.6,0.0
477953,2689.0,30218.0,176.6,0.0
477953,2700.0,30218.0,176.6,0.0
477970,2580.0,30227.0,176.6,0.0
477971,2599.0,30227.0,176.6,0.0
477971,2582.0,30227.0,176.6,0.0
477983,1656.0,30231.0,176.6,0.0
477984,1715.0,30231.0,176.6,0.0
477984,1723.0,30231.0,176.6,0.0
478001,1554.0,30240.0,176.6,0.0
478002,1507.0,30240.0,176.6,0.0
478002,1524.0,30240.0,176.6,0.0
478014,2277.0,30243.0,171.2,0.0
478015,2225.0,30243.0,171.2,0.0
478015,2217.0,30243.0,171.2,0.0
478028,2024.0,30247.0,171.2,0.0
478028,2093.0,30247.0,171.2,0.0
478028,2095.0,30247.0,171.2,0.0
478045,1660.0,30254.0,171.2,0.0
478046,1712.0,30254.0,171.2,0.0
478046,1767.0,30254.0,171.2,0.0
478059,1663.0,30261.0,171.2,0.0
478060,1600.0,30261.0,171.2,0.0
478060,1611.0,30261.0,171.2,0.0
478076,2117.0,30264.0,171.2,0.0
478076,2038.0,30264.0,171.2,0.0
478077,2035.0,30264.0,171.2,0.0
478090,2280.0,30271.0,171.2,0.0
478091,2296.0,30271.0,171.2,0.0
478091,2307.0,30271.0,171.2,0.0
478103,1548.0,30274.0,171.2,0.0
478104,1593.0,30274.0,171.2,0.0
478104,1587.0,30274.0,171.2,0.0
478122,1486.0,30280.0,171.2,0.0
478122,1488.0,30280.0,171.2,0.0
478123,1523.0,30280.0,171.2,0.0
478135,2228.0,30283.0,171.2,0.0
478136,2160.0,30283.0,171.2,0.0
478136,2123.0,30283.0,171.2,0.0
478149,2283.0,30289.0,171.2,0.0
478150,2328.0,30289.0,171.2,0.0
478150,2337.0,30289.0,171.2,0.0
478166,1906.0,30292.0,171.2,0.0
478167,1965.0,30292.0,171.2,0.0
478167,2008.0,30292.0,171.2,0.0
478180,1605.0,30298.0,171.2,0.0
478181,1580.0,30298.0,171.2,0.0
478181,1555.0,30298.0,171.2,0.0
478194,2345.0,30301.0,171.2,0.0
478194,2315.0,30301.0,171.2,0.0
478194,2356.0,30301.0,171.2,0.0
478211,2453.0,30307.0,171.2,0.0
478212,2434.0,30307.0,171.2,0.0
478212,2402.0,30307.0,171.2,0.0
478224,1698.0,30311.0,171.2,0.0
478225,1788.0,30311.0,171.2,0.0
478225,1824.0,30311.0,171.2,0.0
478242,1591.0,30317.0,171.2,0.0
478243,1558.0,30317.0,171.2,0.0
478243,1604.0,30317.0,171.2,0.0
478255,2267.0,30320.0,171.2,0.0
478256,2198.0,30320.0,171.2,0.0
478256,2163.0,30320.0,171.2,0.0
478269,2250.0,30327.0,171.2,0.0
478270,2287.0,30327.0,171.2,0.0
478270,2313.0,30327.0,171.2,0.0
478286,1893.0,30331.0,171.2,0.0
478286,1953.0,30331.0,171.2,0.0
478287,1955.0,30331.0,171.2,0.0
478300,1588.0,30337.0,171.2,0.0
478301,1567.0,30337.0,171.2,0.0
478301,1562.0,30337.0,171.2,0.0
478317,2038.0,30340.0,171.2,0.0
478317,1938.0,30340.0,171.2,0.0
478317,1941.0,30340.0,171.2,0.0
478331,2628.0,30346.0,176.9,0.0
478331,2650.0,30346.0,176.9,0.0
478332,2659.0,30346.0,176.9,0.0
478344,2393.0,30349.0,176.9,0.0
478345,2458.0,30349.0,176.9,0.0
478345,2482.0,30349.0,176.9,0.0
478363,1452.0,30356.0,176.9,0.0
478363,1451.0,30356.0,176.9,0.0
478363,1421.0,30356.0,176.9,0.0
478376,2071.0,30359.0,176.9,0.0
478376,2035.0,30359.0,176.9,0.0
478376,2058.0,30359.0,176.9,0.0
478390,2384.0,30365.0,176.9,0.0
478390,2387.0,30365.0,176.9,0.0
478391,2374.0,30365.0,176.9,0.0
478407,1954.0,30369.0,176.9,0.0
478407,2066.0,30369.0,176.9,0.0
478407,2091.0,30369.0,176.9,0.0
478421,1579.0,30375.0,176.9,0.0
478421,1543.0,30375.0,176.9,0.0
478421,1550.0,30375.0,176.9,0.0
478438,1901.0,30382.0,176.9,0.0
478439,1832.0,30382.0,176.9,0.0
478439,1793.0,30382.0,176.9,0.0
478451,2432.0,30385.0,176.9,0.0
478452,2435.0,30385.0,176.9,0.0
478452,2476.0,30385.0,176.9,0.0
478465,1859.0,30389.0,176.9,0.0
478465,1904.0,30389.0,176.9,0.0
478465,1875.0,30389.0,176.9,0.0
478483,1681.0,30396.0,176.9,0.0
478483,1764.0,30396.0,176.9,0.0
478484,1828.0,30396.0,176.9,0.0
478496,2280.0,30400.0,176.9,0.0
478497,2170.0,30400.0,176.9,0.0
478497,2138.0,30400.0,176.9,0.0
478510,2652.0,30407.0,176.9,0.0
478511,2682.0,30407.0,176.9,0.0
478511,2670.0,30407.0,176.9,0.0
478528,2486.0,30414.0,176.9,0.0
478529,2553.0,30414.0,176.9,0.0
478529,2578.0,30414.0,176.9,0.0
478541,1871.0,30418.0,176.9,0.0
478542,1873.0,30418.0,176.9,0.0
478542,1842.0,30418.0,176.9,0.0
478560,1825.0,30425.0,176.9,0.0
478561,1806.0,30425.0,176.9,0.0
478561,1823.0,30425.0,176.9,0.0
478573,2461.0,30429.0,176.9,0.0
478574,2391.0,30429.0,176.9,0.0
478574,2377.0,30429.0,176.9,0.0
478588,2188.0,30435.0,176.9,0.0
478588,2261.0,30435.0,176.9,0.0
478588,2245.0,30435.0,176.9,0.0
478606,1817.0,30438.0,176.9,0.0
478606,1880.0,30438.0,176.9,0.0
478606,1935.0,30438.0,176.9,0.0
478620,1540.0,30444.0,176.9,0.0
478620,1506.0,30444.0,176.9,0.0
478620,1441.0,30444.0,176.9,0.0
478633,2297.0,30446.0,179.1,0.0
478633,2296.0,30446.0,179.1,0.0
478634,2333.0,30446.0,179.1,0.0
478650,2346.0,30451.0,179.1,0.0
478651,2325.0,30451.0,179.1,0.0
478651,2289.0,30451.0,179.1,0.0
478664,1556.0,30453.0,179.1,0.0
478664,1653.0,30453.0,179.1,0.0
478664,1663.0,30453.0,179.1,0.0
478678,1764.0,30458.0,179.1,0.0
478679,1644.0,30458.0,179.1,0.0
478679,1609.0,30458.0,179.1,0.0
478680,1637.0,30458.0,179.1,0.0
478695,2140.0,30460.0,179.1,0.0
478696,2014.0,30460.0,179.1,0.0
478696,1988.0,30460.0,179.1,0.0
478710,2304.0,30465.0,179.1,0.0
478711,2396.0,30465.0,179.1,0.0
478711,2376.0,30465.0,179.1,0.0
478728,2118.0,30469.0,179.1,0.0
478729,2172.0,30469.0,179.1,0.0
478729,2233.0,30469.0,179.1,0.0
478741,1556.0,30471.0,179.1,0.0
478742,1538.0,30471.0,179.1,0.0
478742,1482.0,30471.0,179.1,0.0
478755,2196.0,30473.0,179.1,0.0
478755,2188.0,30473.0,179.1,0.0
478755,2221.0,30473.0,179.1,0.0
478772,2453.0,30478.0,179.1,0.0
478773,2379.0,30478.0,179.1,0.0
478773,2336.0,30478.0,179.1,0.0
478786,1955.0,30483.0,179.1,0.0
478787,2092.0,30483.0,179.1,0.0
478787,2104.0,30483.0,179.1,0.0
478803,1579.0,30485.0,179.1,0.0
478803,1606.0,30485.0,179.1,0.0
478804,1662.0,30485.0,179.1,0.0
478817,1949.0,30490.0,179.1,0.0
478818,1886.0,30490.0,179.1,0.0
478818,1807.0,30490.0,179.1,0.0
478830,2403.0,30493.0,179.1,0.0
478831,2445.0,30493.0,179.1,0.0
478831,2510.0,30493.0,179.1,0.0
478849,2406.0,30497.0,179.1,0.0
478850,2399.0,30497.0,179.1,0.0
478850,2368.0,30497.0,179.1,0.0
478863,1502.0,30500.0,179.1,0.0
478863,1619.0,30500.0,179.1,0.0
478864,1618.0,30500.0,179.1,0.0
478877,1901.0,30505.0,179.1,0.0
478877,1789.0,30505.0,179.1,0.0
478878,1827.0,30505.0,179.1,0.0
478894,2358.0,30508.0,179.1,0.0
478894,2299.0,30508.0,179.1,0.0
478894,2212.0,30508.0,179.1,0.0
478908,2132.0,30512.0,179.1,0.0
478908,2230.0,30512.0,179.1,0.0
478909,2284.0,30512.0,179.1,0.0
478925,1841.0,30515.0,179.1,0.0
478925,1878.0,30515.0,179.1,0.0
478925,1877.0,30515.0,179.1,0.0
478939,2325.0,30519.0,179.1,0.0
478939,2324.0,30519.0,179.1,0.0
478939,2314.0,30519.0,179.1,0.0
478952,3055.0,30522.0,179.1,0.0
478953,2993.0,30522.0,179.1,0.0
478953,3030.0,30522.0,179.1,0.0
478971,2202.0,30527.0,179.1,0.0
478971,2231.0,30527.0,179.1,0.0
478971,2147.0,30527.0,179.1,0.0
478984,1706.0,30529.0,179.1,0.0
478984,1816.0,30529.0,179.1,0.0
478985,1909.0,30529.0,179.1,0.0
478998,1782.0,30534.0,179.1,0.0
478999,1652.0,30534.0,179.1,0.0
478999,1589.0,30534.0,179.1,0.0
479016,2076.0,30540.0,179.1,0.0
479017,2045.0,30540.0,179.1,0.0
479017,2053.0,30540.0,179.1,0.0
479029,2278.0,30542.0,179.1,0.0
479030,2253.0,30542.0,179.1,0.0
479030,2293.0,30542.0,179.1,0.0
479047,2188.0,30548.0,179.1,0.0
479047,2262.0,30548.0,179.1,0.0
479048,2229.0,30548.0,179.1,0.0
479060,1583.0,30550.0,179.1,0.0
479061,1593.0,30550.0,179.1,0.0
479061,1628.0,30550.0,179.1,0.0
479073,2478.0,30553.0,179.1,0.0
479074,2373.0,30553.0,179.1,0.0
479074,2368.0,30553.0,179.1,0.0
479092,2581.0,30558.0,166.8,0.0
479092,2603.0,30558.0,166.8,0.0
479092,2553.0,30558.0,166.8,0.0
479106,2167.0,30564.0,166.8,0.0
479106,2242.0,30564.0,166.8,0.0
479107,2310.0,30564.0,166.8,0.0
479119,1960.0,30567.0,166.8,0.0
479120,1904.0,30567.0,166.8,0.0
479120,1851.0,30567.0,166.8,0.0
479137,2231.0,30573.0,166.8,0.0
479137,2179.0,30573.0,166.8,0.0
479138,2196.0,30573.0,166.8,0.0
479150,2717.0,30576.0,166.8,0.0
479151,2673.0,30576.0,166.8,0.0
479151,2665.0,30576.0,166.8,0.0
479168,2382.0,30581.0,166.8,0.0
479168,2506.0,30581.0,166.8,0.0
479169,2486.0,30581.0,166.8,0.0
479181,1544.0,30584.0,166.8,0.0
479182,1551.0,30584.0,166.8,0.0
479182,1591.0,30584.0,166.8,0.0
479195,2114.0,30588.0,166.8,0.0
479196,2013.0,30588.0,166.8,0.0
479196,2003.0,30588.0,166.8,0.0
479213,2294.0,30590.0,166.8,0.0
479213,2278.0,30590.0,166.8,0.0
479214,2247.0,30590.0,166.8,0.0
479227,2055.0,30594.0,166.8,0.0
479228,2099.0,30594.0,166.8,0.0
479228,2135.0,30594.0,166.8,0.0
479240,1476.0,30595.0,166.8,0.0
479241,1478.0,30595.0,166.8,0.0
479241,1439.0,30595.0,166.8,0.0
479258,1691.0,30599.0,166.8,0.0
479258,1628.0,30599.0,166.8,0.0
479259,1643.0,30599.0,166.8,0.0
479271,2341.0,30600.0,166.8,0.0
479271,2311.0,30600.0,166.8,0.0
479272,2304.0,30600.0,166.8,0.0
479285,1855.0,30603.0,166.8,0.0
479286,1959.0,30603.0,166.8,0.0
479286,1963.0,30603.0,166.8,0.0
479302,1474.0,30604.0,166.8,0.0
479303,1503.0,30604.0,166.8,0.0
479303,1560.0,30604.0,166.8,0.0
479317,1921.0,30607.0,166.8,0.0
479317,1832.0,30607.0,166.8,0.0
479317,1793.0,30607.0,166.8,0.0
479334,2156.0,30609.0,166.8,0.0
479335,2116.0,30609.0,166.8,0.0
479335,2093.0,30609.0,166.8,0.0
479348,2168.0,30611.0,166.8,0.0
479348,2202.0,30611.0,166.8,0.0
479348,2217.0,30611.0,166.8,0.0
479361,1522.0,30612.0,166.8,0.0
479362,1541.0,30612.0,166.8,0.0
479362,1512.0,30612.0,166.8,0.0
479379,1623.0,30615.0,166.8,0.0
479379,1569.0,30615.0,166.8,0.0
479379,1603.0,30615.0,166.8,0.0
479392,2387.0,30617.0,166.8,0.0
479392,2335.0,30617.0,166.8,0.0
479392,2314.0,30617.0,166.8,0.0
479406,1991.0,30620.0,166.8,0.0
479406,2092.0,30620.0,166.8,0.0
479407,2107.0,30620.0,166.8,0.0
479423,1559.0,30622.0,166.8,0.0
479423,1600.0,30622.0,166.8,0.0
479423,1639.0,30622.0,166.8,0.0
479437,1924.0,30625.0,166.8,0.0
479437,1846.0,30625.0,166.8,0.0
479438,1798.0,30625.0,166.8,0.0
479455,2178.0,30628.0,166.8,0.0
479455,2131.0,30628.0,166.8,0.0
479456,2123.0,30628.0,166.8,0.0
479468,2287.0,30630.0,166.8,0.0
479469,2275.0,30630.0,166.8,0.0
479469,2306.0,30630.0,166.8,0.0
479482,1489.0,30632.0,166.8,0.0
479482,1540.0,30632.0,166.8,0.0
479482,1516.0,30632.0,166.8,0.0
479499,1582.0,30635.0,166.8,0.0
479499,1544.0,30635.0,166.8,0.0
479500,1572.0,30635.0,166.8,0.0
479512,2400.0,30637.0,160.2,0.0
479513,2332.0,30637.0,160.2,0.0
479513,2294.0,30637.0,160.2,0.0
479526,2044.0,30640.0,160.2,0.0
479527,2128.0,30640.0,160.2,0.0
479527,2138.0,30640.0,160.2,0.0
479544,2038.0,30644.0,160.2,0.0
479544,2116.0,30644.0,160.2,0.0
479545,2184.0,30644.0,160.2,0.0
479557,2633.0,30646.0,160.2,0.0
479558,2566.0,30646.0,160.2,0.0
479558,2511.0,30646.0,160.2,0.0
479575,2156.0,30649.0,160.2,0.0
479575,2084.0,30649.0,160.2,0.0
479575,2054.0,30649.0,160.2,0.0
479588,2115.0,30651.0,160.2,0.0
479589,2167.0,30651.0,160.2,0.0
479589,2197.0,30651.0,160.2,0.0
479601,1644.0,30653.0,160.2,0.0
479602,1666.0,30653.0,160.2,0.0
479602,1635.0,30653.0,160.2,0.0
479619,1554.0,30658.0,160.2,0.0
479620,1540.0,30658.0,160.2,0.0
479620,1585.0,30658.0,160.2,0.0
479634,2328.0,30662.0,160.2,0.0
479634,2223.0,30662.0,160.2,0.0
479634,2202.0,30662.0,160.2,0.0
479650,2435.0,30664.0,160.2,0.0
479651,2478.0,30664.0,160.2,0.0
479651,2467.0,30664.0,160.2,0.0
479664,1859.0,30669.0,160.2,0.0
479665,1927.0,30669.0,160.2,0.0
479665,1967.0,30669.0,160.2,0.0
479677,1901.0,30671.0,160.2,0.0
479678,1849.0,30671.0,160.2,0.0
479678,1812.0,30671.0,160.2,0.0
479696,2148.0,30675.0,160.2,0.0
479696,2095.0,30675.0,160.2,0.0
479697,2072.0,30675.0,160.2,0.0
479709,2556.0,30678.0,160.2,0.0
479710,2552.0,30678.0,160.2,0.0
479710,2569.0,30678.0,160.2,0.0
479723,1996.0,30683.0,160.2,0.0
479724,2101.0,30683.0,160.2,0.0
479724,2088.0,30683.0,160.2,0.0
479740,1833.0,30685.0,160.2,0.0
479741,1831.0,30685.0,160.2,0.0
479741,1862.0,30685.0,160.2,0.0
479754,2568.0,30689.0,160.2,0.0
479755,2451.0,30689.0,160.2,0.0
479755,2398.0,30689.0,160.2,0.0
479772,2709.0,30692.0,160.2,0.0
479772,2682.0,30692.0,160.2,0.0
479772,2661.0,30692.0,160.2,0.0
479786,2167.0,30696.0,160.2,0.0
479786,2226.0,30696.0,160.2,0.0
479787,2242.0,30696.0,160.2,0.0
479799,1642.0,30698.0,160.2,0.0
479800,1621.0,30698.0,160.2,0.0
479800,1603.0,30698.0,160.2,0.0
479818,1711.0,30701.0,160.2,0.0
479818,1649.0,30701.0,160.2,0.0
479818,1655.0,30701.0,160.2,0.0
479831,2354.0,30702.0,160.0,0.0
479831,2321.0,30702.0,160.0,0.0
479832,2320.0,30702.0,160.0,0.0
479845,1849.0,30705.0,160.0,0.0
479845,1967.0,30705.0,160.0,0.0
479846,1965.0,30705.0,160.0,0.0
479863,1521.0,30707.0,160.0,0.0
479863,1582.0,30707.0,160.0,0.0
479863,1622.0,30707.0,160.0,0.0
479876,1990.0,30708.0,160.0,0.0
479876,1892.0,30708.0,160.0,0.0
479876,1869.0,30708.0,160.0,0.0
479893,2252.0,30710.0,160.0,0.0
479894,2200.0,30710.0,160.0,0.0
479894,2188.0,30710.0,160.0,0.0
479907,2098.0,30710.0,160.0,0.0
479907,2140.0,30710.0,160.0,0.0
479907,2160.0,30710.0,160.0,0.0
479908,2233.0,30710.0,160.0,0.0
479921,1475.0,30711.0,160.0,0.0
479922,1488.0,30711.0,160.0,0.0
479922,1506.0,30711.0,160.0,0.0
479940,1465.0,30712.0,160.0,0.0
479940,1476.0,30712.0,160.0,0.0
479941,1512.0,30712.0,160.0,0.0
479954,2190.0,30715.0,160.0,0.0
479955,2115.0,30715.0,160.0,0.0
479955,2078.0,30715.0,160.0,0.0
479967,2213.0,30715.0,160.0,0.0
479968,2299.0,30715.0,160.0,0.0
479968,2291.0,30715.0,160.0,0.0
479985,1912.0,30717.0,160.0,0.0
479985,1991.0,30717.0,160.0,0.0
479986,2036.0,30717.0,160.0,0.0
479998,1661.0,30719.0,160.0,0.0
479999,1610.0,30719.0,160.0,0.0
479999,1570.0,30719.0,160.0,0.0
480016,1956.0,30721.0,160.0,0.0
480016,1900.0,30721.0,160.0,0.0
480016,1907.0,30721.0,160.0,0.0
480029,2381.0,30722.0,160.0,0.0
480029,2371.0,30722.0,160.0,0.0
480030,2378.0,30722.0,160.0,0.0
480043,1744.0,30724.0,160.0,0.0
480044,1829.0,30724.0,160.0,0.0
480044,1822.0,30724.0,160.0,0.0
480062,1548.0,30726.0,160.0,0.0
480062,1601.0,30726.0,160.0,0.0
480062,1650.0,30726.0,160.0,0.0
480075,2166.0,30727.0,160.0,0.0
480076,2060.0,30727.0,160.0,0.0
480076,2005.0,30727.0,160.0,0.0
480088,2373.0,30729.0,160.0,0.0
480089,2416.0,30729.0,160.0,0.0
480089,2441.0,30729.0,160.0,0.0
480106,2067.0,30732.0,160.0,0.0
480107,2102.0,30732.0,160.0,0.0
480107,2140.0,30732.0,160.0,0.0
480119,1542.0,30733.0,160.0,0.0
480120,1554.0,30733.0,160.0,0.0
480120,1532.0,30733.0,160.0,0.0
480137,1782.0,30735.0,160.0,0.0
480137,1716.0,30735.0,160.0,0.0
480138,1711.0,30735.0,160.0,0.0
480151,2440.0,30737.0,158.1,0.0
480152,2373.0,30737.0,158.1,0.0
480152,2348.0,30737.0,158.1,0.0
480164,1892.0,30739.0,158.1,0.0
480165,1993.0,30739.0,158.1,0.0
480165,2036.0,30739.0,158.1,0.0
480183,2382.0,30741.0,158.1,0.0
480183,2431.0,30741.0,158.1,0.0
480183,2511.0,30741.0,158.1,0.0
480196,2501.0,30743.0,158.1,0.0
480197,2381.0,30743.0,158.1,0.0
480197,2288.0,30743.0,158.1,0.0
480209,2096.0,30744.0,158.1,0.0
480210,2147.0,30744.0,158.1,0.0
480210,2184.0,30744.0,158.1,0.0
480227,2350.0,30747.0,158.1,0.0
480228,2344.0,30747.0,158.1,0.0
480228,2367.0,30747.0,158.1,0.0
480241,1520.0,30750.0,158.1,0.0
480242,1604.0,30750.0,158.1,0.0
480242,1571.0,30750.0,158.1,0.0
480258,1683.0,30752.0,158.1,0.0
480258,1618.0,30752.0,158.1,0.0
480259,1687.0,30752.0,158.1,0.0
480272,2453.0,30756.0,158.1,0.0
480273,2373.0,30756.0,158.1,0.0
480273,2319.0,30756.0,158.1,0.0
480285,2062.0,30757.0,158.1,0.0
480286,2180.0,30757.0,158.1,0.0
480286,2208.0,30757.0,158.1,0.0
480304,1913.0,30761.0,158.1,0.0
480304,1942.0,30761.0,158.1,0.0
480304,1988.0,30761.0,158.1,0.0
480317,1956.0,30763.0,158.1,0.0
480317,1909.0,30763.0,158.1,0.0
480318,1849.0,30763.0,158.1,0.0
480331,2553.0,30766.0,158.1,0.0
480332,2554.0,30766.0,158.1,0.0
480332,2618.0,30766.0,158.1,0.0
480348,2630.0,30768.0,158.1,0.0
480348,2607.0,30768.0,158.1,0.0
480348,2562.0,30768.0,158.1,0.0
480362,1879.0,30772.0,158.1,0.0
480362,1998.0,30772.0,158.1,0.0
480362,2008.0,30772.0,158.1,0.0
480378,1990.0,30774.0,158.1,0.0
480379,1901.0,30774.0,158.1,0.0
480379,1926.0,30774.0,158.1,0.0
480392,2705.0,30778.0,158.1,0.0
480393,2664.0,30778.0,158.1,0.0
480393,2610.0,30778.0,158.1,0.0
480406,2312.0,30780.0,158.1,0.0
480406,2403.0,30780.0,158.1,0.0
480406,2442.0,30780.0,158.1,0.0
480424,1986.0,30783.0,158.1,0.0
480425,2026.0,30783.0,158.1,0.0
480425,2022.0,30783.0,158.1,0.0
480438,1670.0,30784.0,158.1,0.0
480438,1648.0,30784.0,158.1,0.0
480438,1622.0,30784.0,158.1,0.0
480452,2308.0,30786.0,176.5,0.0
480452,2241.0,30786.0,176.5,0.0
480452,2282.0,30786.0,176.5,0.0
480468,2307.0,30787.0,176.5,0.0
480469,2333.0,30787.0,176.5,0.0
480469,2281.0,30787.0,176.5,0.0
480482,1545.0,30788.0,176.5,0.0
480483,1648.0,30788.0,176.5,0.0
480483,1693.0,30788.0,176.5,0.0
480496,1915.0,30789.0,176.5,0.0
480496,1818.0,30789.0,176.5,0.0
480496,1782.0,30789.0,176.5,0.0
480513,2259.0,30790.0,176.5,0.0
480514,2224.0,30790.0,176.5,0.0
480514,2166.0,30790.0,176.5,0.0
480526,2071.0,30790.0,176.5,0.0
480527,2131.0,30790.0,176.5,0.0
480527,2198.0,30790.0,176.5,0.0
480544,1848.0,30791.0,176.5,0.0
480545,1907.0,30791.0,176.5,0.0
480545,1901.0,30791.0,176.5,0.0
480557,1673.0,30791.0,176.5,0.0
480558,1647.0,30791.0,176.5,0.0
480558,1634.0,30791.0,176.5,0.0
480571,2362.0,30792.0,176.5,0.0
480572,2319.0,30792.0,176.5,0.0
480572,2322.0,30792.0,176.5,0.0
480588,2341.0,30792.0,176.5,0.0
480589,2383.0,30792.0,176.5,0.0
480589,2345.0,30792.0,176.5,0.0
480602,1577.0,30793.0,176.5,0.0
480603,1674.0,30793.0,176.5,0.0
480603,1729.0,30793.0,176.5,0.0
480620,1527.0,30794.0,176.5,0.0
480620,1492.0,30794.0,176.5,0.0
480621,1492.0,30794.0,176.5,0.0
480633,2228.0,30795.0,176.5,0.0
480634,2208.0,30795.0,176.5,0.0
480634,2197.0,30795.0,176.5,0.0
480646,2173.0,30796.0,176.5,0.0
480647,2213.0,30796.0,176.5,0.0
480647,2215.0,30796.0,176.5,0.0
480665,2003.0,30798.0,176.5,0.0
480665,2079.0,30798.0,176.5,0.0
480666,2103.0,30798.0,176.5,0.0
480679,1513.0,30800.0,176.5,0.0
480680,1520.0,30800.0,176.5,0.0
480680,1526.0,30800.0,176.5,0.0
480692,2333.0,30801.0,176.5,0.0
480693,2277.0,30801.0,176.5,0.0
480693,2282.0,30801.0,176.5,0.0
480710,2458.0,30803.0,176.5,0.0
480710,2467.0,30803.0,176.5,0.0
480711,2441.0,30803.0,176.5,0.0
480723,1796.0,30804.0,176.5,0.0
480724,1889.0,30804.0,176.5,0.0
480724,1919.0,30804.0,176.5,0.0
480736,1909.0,30805.0,176.5,0.0
480737,1829.0,30805.0,176.5,0.0
480737,1809.0,30805.0,176.5,0.0
480754,2146.0,30806.0,176.5,0.0
480754,2080.0,30806.0,176.5,0.0
480754,2041.0,30806.0,176.5,0.0
480767,2220.0,30807.0,176.5,0.0
480767,2272.0,30807.0,176.5,0.0
480768,2294.0,30807.0,176.5,0.0
480785,1968.0,30810.0,176.5,0.0
480785,2038.0,30810.0,176.5,0.0
480785,2041.0,30810.0,176.5,0.0
480799,1511.0,30812.0,176.5,0.0
480799,1517.0,30812.0,176.5,0.0
480800,1514.0,30812.0,176.5,0.0
480812,2441.0,30813.0,184.6,0.0
480813,2392.0,30813.0,184.6,0.0
480813,2430.0,30813.0,184.6,0.0
480830,3281.0,30815.0,184.6,0.0
480830,3270.0,30815.0,184.6,0.0
480830,3253.0,30815.0,184.6,0.0
480843,1986.0,30816.0,184.6,0.0
480843,2052.0,30816.0,184.6,0.0
480844,2038.0,30816.0,184.6,0.0
480856,1605.0,30817.0,184.6,0.0
480857,1533.0,30817.0,184.6,0.0
480857,1547.0,30817.0,184.6,0.0
480874,2305.0,30819.0,184.6,0.0
480874,2207.0,30819.0,184.6,0.0
480874,2160.0,30819.0,184.6,0.0
480887,2189.0,30820.0,184.6,0.0
480887,2272.0,30820.0,184.6,0.0
480887,2285.0,30820.0,184.6,0.0
480905,1998.0,30823.0,184.6,0.0
480905,2043.0,30823.0,184.6,0.0
480905,2071.0,30823.0,184.6,0.0
480919,1611.0,30826.0,184.6,0.0
480919,1598.0,30826.0,184.6,0.0
480919,1564.0,30826.0,184.6,0.0
480932,2384.0,30827.0,184.6,0.0
480932,2347.0,30827.0,184.6,0.0
480933,2387.0,30827.0,184.6,0.0
480949,2554.0,30830.0,184.6,0.0
480950,2523.0,30830.0,184.6,0.0
480950,2474.0,30830.0,184.6,0.0
480963,1848.0,30832.0,184.6,0.0
480963,1968.0,30832.0,184.6,0.0
480963,1995.0,30832.0,184.6,0.0
480976,2044.0,30834.0,184.6,0.0
480977,1941.0,30834.0,184.6,0.0
480977,1948.0,30834.0,184.6,0.0
480994,2478.0,30837.0,184.6,0.0
480994,2416.0,30837.0,184.6,0.0
480994,2375.0,30837.0,184.6,0.0
481008,2642.0,30840.0,184.6,0.0
481008,2690.0,30840.0,184.6,0.0
481009,2732.0,30840.0,184.6,0.0
481025,2395.0,30842.0,184.6,0.0
481025,2435.0,30842.0,184.6,0.0
481025,2415.0,30842.0,184.6,0.0
481039,1875.0,30846.0,184.6,0.0
481039,1901.0,30846.0,184.6,0.0
481040,1902.0,30846.0,184.6,0.0
481052,2535.0,30847.0,184.6,0.0
481052,2455.0,30847.0,184.6,0.0
481053,2467.0,30847.0,184.6,0.0
481070,2508.0,30850.0,184.6,0.0
481070,2498.0,30850.0,184.6,0.0
481070,2425.0,30850.0,184.6,0.0
481083,1654.0,30851.0,184.6,0.0
481083,1767.0,30851.0,184.6,0.0
481083,1825.0,30851.0,184.6,0.0
481096,1803.0,30851.0,184.6,0.0
481096,1683.0,30851.0,184.6,0.0
481097,1666.0,30851.0,184.6,0.0
481113,2137.0,30853.0,184.6,0.0
481114,2089.0,30853.0,184.6,0.0
481114,2049.0,30853.0,184.6,0.0
481128,2206.0,30854.0,184.6,0.0
481128,2234.0,30854.0,184.6,0.0
481128,2269.0,30854.0,184.6,0.0
481144,1906.0,30854.0,184.6,0.0
481145,1977.0,30854.0,184.6,0.0
481145,1941.0,30854.0,184.6,0.0
481159,1443.0,30855.0,184.6,0.0
481159,1447.0,30855.0,184.6,0.0
481159,1479.0,30855.0,184.6,0.0
481172,2287.0,30855.0,184.6,0.0
481172,2210.0,30855.0,184.6,0.0
481172,2212.0,30855.0,184.6,0.0
481189,2400.0,30855.0,184.6,0.0
481190,2401.0,30855.0,184.6,0.0
481190,2366.0,30855.0,184.6,0.0
481202,1615.0,30856.0,184.6,0.0
481203,1708.0,30856.0,184.6,0.0
481203,1767.0,30856.0,184.6,0.0
481216,1874.0,30856.0,184.6,0.0
481216,1805.0,30856.0,184.6,0.0
481216,1759.0,30856.0,184.6,0.0
481233,2193.0,30857.0,184.6,0.0
481234,2149.0,30857.0,184.6,0.0
481234,2107.0,30857.0,184.6,0.0
481247,2248.0,30858.0,184.6,0.0
481248,2272.0,30858.0,184.6,0.0
481248,2294.0,30858.0,184.6,0.0
481264,1925.0,30858.0,184.6,0.0
481264,1987.0,30858.0,184.6,0.0
481265,1981.0,30858.0,184.6,0.0
481278,1512.0,30860.0,184.6,0.0
481279,1511.0,30860.0,184.6,0.0
481279,1520.0,30860.0,184.6,0.0
481291,2332.0,30860.0,184.6,0.0
481292,2265.0,30860.0,184.6,0.0
481292,2273.0,30860.0,184.6,0.0
481309,2407.0,30862.0,184.6,0.0
481309,2421.0,30862.0,184.6,0.0
481310,2388.0,30862.0,184.6,0.0
481322,1642.0,30862.0,184.6,0.0
481322,1701.0,30862.0,184.6,0.0
481323,1761.0,30862.0,184.6,0.0
481335,2000.0,30863.0,184.6,0.0
481336,1902.0,30863.0,184.6,0.0
481336,1873.0,30863.0,184.6,0.0
481353,2310.0,30865.0,184.6,0.0
481353,2263.0,30865.0,184.6,0.0
481353,2213.0,30865.0,184.6,0.0
481367,2219.0,30866.0,184.6,0.0
481368,2255.0,30866.0,184.6,0.0
481368,2289.0,30866.0,184.6,0.0
481384,1915.0,30867.0,184.6,0.0
481384,1974.0,30867.0,184.6,0.0
481385,1986.0,30867.0,184.6,0.0
481399,1477.0,30868.0,184.6,0.0
481400,1503.0,30868.0,184.6,0.0
481400,1515.0,30868.0,184.6,0.0
481413,2201.0,30869.0,184.6,0.0
481413,2150.0,30869.0,184.6,0.0
481413,2150.0,30869.0,184.6,0.0
481430,2503.0,30871.0,184.6,0.0
481430,2511.0,30871.0,184.6,0.0
481431,2467.0,30871.0,184.6,0.0
481443,2483.0,30872.0,184.6,0.0
481444,2607.0,30872.0,184.6,0.0
481444,2720.0,30872.0,184.6,0.0
481445,2763.0,30872.0,184.6,0.0
481458,2133.0,30874.0,184.6,0.0
481459,2058.0,30874.0,184.6,0.0
481459,2031.0,30874.0,184.6,0.0
481475,1779.0,30875.0,184.6,0.0
481475,1723.0,30875.0,184.6,0.0
481475,1693.0,30875.0,184.6,0.0
481489,2422.0,30877.0,184.6,0.0
481489,2417.0,30877.0,184.6,0.0
481490,2450.0,30877.0,184.6,0.0
481507,2267.0,30879.0,184.6,0.0
481507,2293.0,30879.0,184.6,0.0
481507,2285.0,30879.0,184.6,0.0
481520,1498.0,30880.0,184.6,0.0
481521,1571.0,30880.0,184.6,0.0
481521,1588.0,30880.0,184.6,0.0
481533,2187.0,30881.0,184.6,0.0
481534,2094.0,30881.0,184.6,0.0
481534,2112.0,30881.0,184.6,0.0
481551,2431.0,30884.0,184.6,0.0
481552,2414.0,30884.0,184.6,0.0
481552,2341.0,30884.0,184.6,0.0
481564,2033.0,30885.0,184.6,0.0
481565,2131.0,30885.0,184.6,0.0
481565,2185.0,30885.0,184.6,0.0
481579,1675.0,30888.0,184.6,0.0
481579,1632.0,30888.0,184.6,0.0
481579,1610.0,30888.0,184.6,0.0
481596,1941.0,30890.0,184.6,0.0
481597,1910.0,30890.0,184.6,0.0
481597,1905.0,30890.0,184.6,0.0
481609,2614.0,30892.0,184.6,0.0
481610,2592.0,30892.0,184.6,0.0
481610,2607.0,30892.0,184.6,0.0
481627,2648.0,30895.0,184.6,0.0
481627,2688.0,30895.0,184.6,0.0
481628,2660.0,30895.0,184.6,0.0
481640,1830.0,30896.0,184.6,0.0
481641,1907.0,30896.0,184.6,0.0
481641,1968.0,30896.0,184.6,0.0
481654,2408.0,30898.0,184.6,0.0
481654,2312.0,30898.0,184.6,0.0
481655,2287.0,30898.0,184.6,0.0
481672,2507.0,30901.0,184.6,0.0
481672,2458.0,30901.0,184.6,0.0
481672,2415.0,30901.0,184.6,0.0
481686,2238.0,30904.0,184.6,0.0
481687,2291.0,30904.0,184.6,0.0
481687,2335.0,30904.0,184.6,0.0
481703,1795.0,30905.0,184.6,0.0
481703,1843.0,30905.0,184.6,0.0
481704,1836.0,30905.0,184.6,0.0
481717,1524.0,30906.0,184.6,0.0
481718,1514.0,30906.0,184.6,0.0
481718,1511.0,30906.0,184.6,0.0
481730,2305.0,30907.0,184.6,0.0
481731,2248.0,30907.0,184.6,0.0
481731,2271.0,30907.0,184.6,0.0
481749,2341.0,30908.0,184.6,0.0
481749,2345.0,30908.0,184.6,0.0
481750,2301.0,30908.0,184.6,0.0
481762,1605.0,30909.0,184.6,0.0
481763,1698.0,30909.0,184.6,0.0
481763,1756.0,30909.0,184.6,0.0
481776,1676.0,30910.0,184.6,0.0
481777,1591.0,30910.0,184.6,0.0
481777,1552.0,30910.0,184.6,0.0
481793,2128.0,30911.0,184.6,0.0
481794,2085.0,30911.0,184.6,0.0
481794,2063.0,30911.0,184.6,0.0
481807,2256.0,30911.0,184.6,0.0
481808,2271.0,30911.0,184.6,0.0
481808,2291.0,30911.0,184.6,0.0
481824,1980.0,30912.0,184.6,0.0
481824,2028.0,30912.0,184.6,0.0
481825,2027.0,30912.0,184.6,0.0
481838,1523.0,30913.0,184.6,0.0
481839,1499.0,30913.0,184.6,0.0
481839,1511.0,30913.0,184.6,0.0
481852,2289.0,30913.0,184.6,0.0
481852,2212.0,30913.0,184.6,0.0
481852,2202.0,30913.0,184.6,0.0
481870,2380.0,30915.0,184.6,0.0
481871,2375.0,30915.0,184.6,0.0
481871,2324.0,30915.0,184.6,0.0
481884,1890.0,30916.0,184.6,0.0
481884,1970.0,30916.0,184.6,0.0
481884,2027.0,30916.0,184.6,0.0
481898,1599.0,30916.0,184.6,0.0
481898,1559.0,30916.0,184.6,0.0
481898,1514.0,30916.0,184.6,0.0
481915,1923.0,30918.0,184.6,0.0
481916,1862.0,30918.0,184.6,0.0
481916,1860.0,30918.0,184.6,0.0
481928,2418.0,30919.0,199.3,0.0
481929,2400.0,30919.0,199.3,0.0
481929,2402.0,30919.0,199.3,0.0
481946,2178.0,30921.0,199.3,0.0
481946,2252.0,30921.0,199.3,0.0
481947,2239.0,30921.0,199.3,0.0
481959,1468.0,30921.0,199.3,0.0
481960,1497.0,30921.0,199.3,0.0
481960,1504.0,30921.0,199.3,0.0
481973,2211.0,30922.0,199.3,0.0
481973,2111.0,30922.0,199.3,0.0
481973,2122.0,30922.0,199.3,0.0
481991,2341.0,30924.0,199.3,0.0
481992,2293.0,30924.0,199.3,0.0
481992,2262.0,30924.0,199.3,0.0
482006,2189.0,30926.0,199.3,0.0
482006,2271.0,30926.0,199.3,0.0
482006,2315.0,30926.0,199.3,0.0
482019,1978.0,30926.0,199.3,0.0
482019,1983.0,30926.0,199.3,0.0
482019,1963.0,30926.0,199.3,0.0
482036,2258.0,30928.0,199.3,0.0
482037,2182.0,30928.0,199.3,0.0
482037,2184.0,30928.0,199.3,0.0
482049,2104.0,30929.0,199.3,0.0
482050,2070.0,30929.0,199.3,0.0
482050,2058.0,30929.0,199.3,0.0
482063,1872.0,30930.0,199.3,0.0
482063,1959.0,30930.0,199.3,0.0
482063,1983.0,30930.0,199.3,0.0
482080,1523.0,30932.0,199.3,0.0
482081,1537.0,30932.0,199.3,0.0
482081,1572.0,30932.0,199.3,0.0
482094,2021.0,30934.0,199.3,0.0
482095,1948.0,30934.0,199.3,0.0
482095,1917.0,30934.0,199.3,0.0
482111,2373.0,30935.0,199.3,0.0
482112,2323.0,30935.0,199.3,0.0
482112,2320.0,30935.0,199.3,0.0
482125,2239.0,30937.0,199.3,0.0
482126,2289.0,30937.0,199.3,0.0
482126,2294.0,30937.0,199.3,0.0
482139,1604.0,30938.0,199.3,0.0
482139,1616.0,30938.0,199.3,0.0
482139,1610.0,30938.0,199.3,0.0
482156,1801.0,30940.0,199.3,0.0
482157,1742.0,30940.0,199.3,0.0
482157,1758.0,30940.0,199.3,0.0
482170,2546.0,30942.0,199.3,0.0
482170,2501.0,30942.0,199.3,0.0
482170,2480.0,30942.0,199.3,0.0
482184,2219.0,30944.0,199.3,0.0
482184,2311.0,30944.0,199.3,0.0
482185,2330.0,30944.0,199.3,0.0
482201,1850.0,30946.0,199.3,0.0
482201,1904.0,30946.0,199.3,0.0
482201,1939.0,30946.0,199.3,0.0
482215,2237.0,30949.0,199.3,0.0
482215,2155.0,30949.0,199.3,0.0
482215,2133.0,30949.0,199.3,0.0
482232,2587.0,30950.0,199.3,0.0
482232,2534.0,30950.0,199.3,0.0
482232,2525.0,30950.0,199.3,0.0
482246,2436.0,30953.0,199.3,0.0
482246,2471.0,30953.0,199.3,0.0
482246,2472.0,30953.0,199.3,0.0
482259,1621.0,30954.0,199.3,0.0
482259,1649.0,30954.0,199.3,0.0
482260,1625.0,30954.0,199.3,0.0
482277,1636.0,30956.0,199.3,0.0
482277,1574.0,30956.0,199.3,0.0
482277,1591.0,30956.0,199.3,0.0
482290,2371.0,30957.0,181.5,0.0
482290,2339.0,30957.0,181.5,0.0
482291,2312.0,30957.0,181.5,0.0
482304,1964.0,30958.0,181.5,0.0
482305,2059.0,30958.0,181.5,0.0
482305,2068.0,30958.0,181.5,0.0
482321,1561.0,30959.0,181.5,0.0
482322,1630.0,30959.0,181.5,0.0
482322,1681.0,30959.0,181.5,0.0
482335,1748.0,30959.0,181.5,0.0
482336,1664.0,30959.0,181.5,0.0
482336,1633.0,30959.0,181.5,0.0
482353,2071.0,30960.0,181.5,0.0
482354,2008.0,30960.0,181.5,0.0
482354,1982.0,30960.0,181.5,0.0
482366,2216.0,30960.0,181.5,0.0
482367,2243.0,30960.0,181.5,0.0
482367,2257.0,30960.0,181.5,0.0
482380,1514.0,30960.0,181.5,0.0
482380,1560.0,30960.0,181.5,0.0
482380,1535.0,30960.0,181.5,0.0
482397,1558.0,30960.0,181.5,0.0
482398,1519.0,30960.0,181.5,0.0
482398,1549.0,30960.0,181.5,0.0
482410,2367.0,30960.0,181.5,0.0
482411,2304.0,30960.0,181.5,0.0
482411,2274.0,30960.0,181.5,0.0
482425,2106.0,30961.0,181.5,0.0
482425,2206.0,30961.0,181.5,0.0
482425,2218.0,30961.0,181.5,0.0
482441,1651.0,30961.0,181.5,0.0
482442,1711.0,30961.0,181.5,0.0
482442,1757.0,30961.0,181.5,0.0
482456,1820.0,30962.0,181.5,0.0
482456,1678.0,30962.0,181.5,0.0
482457,1629.0,30962.0,181.5,0.0
482474,2055.0,30962.0,181.5,0.0
482474,1987.0,30962.0,181.5,0.0
482474,1988.0,30962.0,181.5,0.0
482487,2395.0,30963.0,181.5,0.0
482487,2393.0,30963.0,181.5,0.0
482488,2404.0,30963.0,181.5,0.0
482500,1583.0,30963.0,181.5,0.0
482501,1646.0,30963.0,181.5,0.0
482501,1636.0,30963.0,181.5,0.0
482518,1500.0,30964.0,181.5,0.0
482518,1486.0,30964.0,181.5,0.0
482518,1522.0,30964.0,181.5,0.0
482531,2330.0,30964.0,181.5,0.0
482531,2258.0,30964.0,181.5,0.0
482532,2237.0,30964.0,181.5,0.0
482545,2158.0,30965.0,181.5,0.0
482545,2228.0,30965.0,181.5,0.0
482546,2251.0,30965.0,181.5,0.0
482562,1807.0,30966.0,181.5,0.0
482563,1869.0,30966.0,181.5,0.0
482563,1905.0,30966.0,181.5,0.0
482576,2049.0,30967.0,181.5,0.0
482576,1993.0,30967.0,181.5,0.0
482577,1966.0,30967.0,181.5,0.0
482594,2581.0,30967.0,181.5,0.0
482595,2503.0,30967.0,181.5,0.0
482595,2501.0,30967.0,181.5,0.0
482608,2177.0,30968.0,181.5,0.0
482608,2161.0,30968.0,181.5,0.0
482608,2119.0,30968.0,181.5,0.0
482621,1619.0,30968.0,181.5,0.0
482621,1727.0,30968.0,181.5,0.0
482622,1773.0,30968.0,181.5,0.0
482638,1493.0,30969.0,181.5,0.0
482639,1479.0,30969.0,181.5,0.0
482639,1485.0,30969.0,181.5,0.0
482653,2165.0,30970.0,181.5,0.0
482653,2119.0,30970.0,181.5,0.0
482653,2099.0,30970.0,181.5,0.0
482669,2417.0,30970.0,145.5,0.0
482670,2393.0,30970.0,145.5,0.0
482670,2399.0,30970.0,145.5,0.0
482683,2014.0,30972.0,145.5,0.0
482684,2079.0,30972.0,145.5,0.0
482684,2078.0,30972.0,145.5,0.0
482697,1690.0,30972.0,145.5,0.0
482697,1663.0,30972.0,145.5,0.0
482697,1661.0,30972.0,145.5,0.0
482715,1935.0,30974.0,145.5,0.0
482716,1832.0,30974.0,145.5,0.0
482716,1825.0,30974.0,145.5,0.0
482728,2518.0,30975.0,145.5,0.0
482729,2524.0,30975.0,145.5,0.0
482729,2531.0,30975.0,145.5,0.0
482743,2076.0,30976.0,145.5,0.0
482743,2148.0,30976.0,145.5,0.0
482743,2147.0,30976.0,145.5,0.0
482759,1776.0,30977.0,145.5,0.0
482760,1821.0,30977.0,145.5,0.0
482760,1841.0,30977.0,145.5,0.0
482773,2360.0,30978.0,145.5,0.0
482774,2283.0,30978.0,145.5,0.0
482774,2273.0,30978.0,145.5,0.0
482787,2625.0,30979.0,145.5,0.0
482787,2652.0,30979.0,145.5,0.0
482787,2645.0,30979.0,145.5,0.0
482804,2280.0,30981.0,145.5,0.0
482805,2371.0,30981.0,145.5,0.0
482805,2391.0,30981.0,145.5,0.0
482817,1664.0,30982.0,145.5,0.0
482818,1625.0,30982.0,145.5,0.0
482818,1612.0,30982.0,145.5,0.0
482835,1815.0,30983.0,145.5,0.0
482835,1749.0,30983.0,145.5,0.0
482836,1730.0,30983.0,145.5,0.0
482848,2341.0,30983.0,145.5,0.0
482849,2308.0,30983.0,145.5,0.0
482849,2326.0,30983.0,145.5,0.0
482862,1800.0,30984.0,145.5,0.0
482863,1873.0,30984.0,145.5,0.0
482863,1871.0,30984.0,145.5,0.0
482879,1433.0,30984.0,145.5,0.0
482880,1462.0,30984.0,145.5,0.0
482880,1502.0,30984.0,145.5,0.0
482893,1978.0,30984.0,145.5,0.0
482894,1881.0,30984.0,145.5,0.0
482894,1868.0,30984.0,145.5,0.0
482911,2204.0,30983.0,145.5,0.0
482912,2145.0,30983.0,145.5,0.0
482912,2122.0,30983.0,145.5,0.0
482925,2073.0,30983.0,145.5,0.0
482925,2103.0,30983.0,145.5,0.0
482926,2160.0,30983.0,145.5,0.0
482938,1521.0,30983.0,145.5,0.0
482938,1518.0,30983.0,145.5,0.0
482939,1471.0,30983.0,145.5,0.0
482957,1542.0,30983.0,145.5,0.0
482957,1537.0,30983.0,145.5,0.0
482957,1556.0,30983.0,145.5,0.0
482971,2319.0,30982.0,155.7,0.0
482971,2243.0,30982.0,155.7,0.0
482971,2224.0,30982.0,155.7,0.0
482984,2061.0,30982.0,155.7,0.0
482984,2150.0,30982.0,155.7,0.0
482984,2149.0,30982.0,155.7,0.0
483001,1696.0,30982.0,155.7,0.0
483002,1775.0,30982.0,155.7,0.0
483002,1831.0,30982.0,155.7,0.0
483015,1906.0,30982.0,155.7,0.0
483015,1822.0,30982.0,155.7,0.0
483015,1777.0,30982.0,155.7,0.0
483028,2381.0,30981.0,155.7,0.0
483028,2395.0,30981.0,155.7,0.0
483028,2421.0,30981.0,155.7,0.0
483045,2292.0,30982.0,155.7,0.0
483046,2318.0,30982.0,155.7,0.0
483046,2302.0,30982.0,155.7,0.0
483059,1574.0,30982.0,155.7,0.0
483059,1619.0,30982.0,155.7,0.0
483059,1612.0,30982.0,155.7,0.0
483077,1613.0,30982.0,155.7,0.0
483077,1546.0,30982.0,155.7,0.0
483077,1567.0,30982.0,155.7,0.0
483091,2305.0,30983.0,155.7,0.0
483091,2241.0,30983.0,155.7,0.0
483091,2198.0,30983.0,155.7,0.0
483104,2063.0,30983.0,155.7,0.0
483104,2146.0,30983.0,155.7,0.0
483105,2172.0,30983.0,155.7,0.0
483121,1726.0,30983.0,155.7,0.0
483122,1795.0,30983.0,155.7,0.0
483122,1830.0,30983.0,155.7,0.0
483135,1842.0,30983.0,155.7,0.0
483135,1767.0,30983.0,155.7,0.0
483135,1739.0,30983.0,155.7,0.0
483148,2508.0,30983.0,155.7,0.0
