timestamp_ms,ecg_filtered,ppg_dc_ir,ecg_bpm,spo2_pct
664309,2040.0,437.0,159.2,0.0
664313,2054.0,437.0,159.2,0.0
664326,2018.0,437.0,159.2,0.0
664328,2036.0,437.0,159.2,0.0
664329,2049.0,437.0,159.2,0.0
664330,2029.0,437.0,159.2,0.0
664343,2025.0,437.0,159.2,0.0
664343,2023.0,437.0,159.2,0.0
664343,2055.0,437.0,159.2,0.0
664346,2038.0,437.0,159.2,0.0
664361,2050.0,437.0,159.2,0.0
664361,2027.0,437.0,159.2,0.0
664361,2043.0,437.0,159.2,0.0
664362,2055.0,437.0,159.2,0.0
664374,2068.0,436.0,159.2,0.0
664375,2047.0,436.0,159.2,0.0
664375,2057.0,436.0,159.2,0.0
664388,2023.0,437.0,159.2,0.0
664389,2050.0,437.0,159.2,0.0
664389,2041.0,437.0,159.2,0.0
664390,2042.0,437.0,159.2,0.0
664406,2017.0,437.0,159.2,0.0
664407,2025.0,437.0,159.2,0.0
664407,2037.0,437.0,159.2,0.0
664407,2034.0,437.0,159.2,0.0
664420,2046.0,437.0,159.2,0.0
664420,2029.0,437.0,159.2,0.0
664420,2010.0,437.0,159.2,0.0
664437,2065.0,437.0,159.2,0.0
664438,2060.0,437.0,159.2,0.0
664438,2050.0,437.0,159.2,0.0
664438,2048.0,437.0,159.2,0.0
664451,2068.0,437.0,159.2,0.0
664451,2048.0,437.0,159.2,0.0
664451,2058.0,437.0,159.2,0.0
664464,2030.0,436.0,159.2,0.0
664464,2027.0,436.0,159.2,0.0
664465,2028.0,436.0,159.2,0.0
664465,2035.0,436.0,159.2,0.0
664483,2033.0,436.0,159.2,0.0
664483,2023.0,436.0,159.2,0.0
664483,2019.0,436.0,159.2,0.0
664483,2028.0,436.0,159.2,0.0
664497,2066.0,436.0,159.2,0.0
664497,2060.0,436.0,159.2,0.0
664498,2061.0,436.0,159.2,0.0
664510,2035.0,436.0,159.2,0.0
664510,2044.0,436.0,159.2,0.0
664511,2040.0,436.0,159.2,0.0
664511,2045.0,436.0,159.2,0.0
664528,1991.0,436.0,159.2,0.0
664528,2030.0,436.0,159.2,0.0
664528,2030.0,436.0,159.2,0.0
664528,2030.0,436.0,159.2,0.0
664541,2046.0,436.0,159.2,0.0
664541,2042.0,436.0,159.2,0.0
664542,2038.0,436.0,159.2,0.0
664554,2064.0,436.0,159.2,0.0
664555,2071.0,436.0,159.2,0.0
664555,2072.0,436.0,159.2,0.0
664555,2066.0,436.0,159.2,0.0
664572,2063.0,435.0,159.2,0.0
664573,2069.0,435.0,159.2,0.0
664573,2062.0,435.0,159.2,0.0
664573,2061.0,435.0,159.2,0.0
664587,2020.0,435.0,159.2,0.0
664587,2022.0,435.0,159.2,0.0
664587,2027.0,435.0,159.2,0.0
664603,2053.0,435.0,159.2,0.0
664604,2024.0,435.0,159.2,0.0
664604,2029.0,435.0,159.2,0.0
664604,2035.0,435.0,159.2,0.0
664618,2060.0,435.0,159.2,0.0
664618,2058.0,435.0,159.2,0.0
664618,2052.0,435.0,159.2,0.0
664631,2042.0,435.0,159.2,0.0
664631,2060.0,435.0,159.2,0.0
664632,2041.0,435.0,159.2,0.0
664632,2067.0,435.0,159.2,0.0
664649,2033.0,435.0,159.2,0.0
664649,2034.0,435.0,159.2,0.0
664649,2030.0,435.0,159.2,0.0
664649,2034.0,435.0,159.2,0.0
664662,2045.0,435.0,159.2,0.0
664663,2036.0,435.0,159.2,0.0
664663,2041.0,435.0,159.2,0.0
664680,2054.0,435.0,159.2,0.0
664680,2050.0,435.0,159.2,0.0
664680,2052.0,435.0,159.2,0.0
664680,2047.0,435.0,159.2,0.0
664693,2061.0,435.0,159.2,0.0
664694,2058.0,435.0,159.2,0.0
664694,2056.0,435.0,159.2,0.0
664707,2028.0,435.0,159.2,0.0
664708,2016.0,435.0,159.2,0.0
664708,2027.0,435.0,159.2,0.0
664708,2011.0,435.0,159.2,0.0
664726,2024.0,434.0,159.2,0.0
664727,2029.0,434.0,159.2,0.0
664727,2030.0,434.0,159.2,0.0
664727,2028.0,434.0,159.2,0.0
664739,2051.0,434.0,159.2,0.0
664740,2053.0,434.0,159.2,0.0
664740,2053.0,434.0,159.2,0.0
664753,2058.0,434.0,159.2,0.0
664753,2063.0,434.0,159.2,0.0
664753,2065.0,434.0,159.2,0.0
664770,2039.0,434.0,159.2,0.0
664770,2054.0,434.0,159.2,0.0
664771,2058.0,434.0,159.2,0.0
664771,2056.0,434.0,159.2,0.0
664783,2035.0,434.0,159.2,0.0
664784,2029.0,434.0,159.2,0.0
664784,2033.0,434.0,159.2,0.0
664797,2061.0,433.0,159.2,0.0
664798,2056.0,433.0,159.2,0.0
664798,2059.0,433.0,159.2,0.0
664798,2062.0,433.0,159.2,0.0
664815,2068.0,432.0,159.2,0.0
664815,2056.0,432.0,159.2,0.0
664815,2072.0,432.0,159.2,0.0
664816,2068.0,432.0,159.2,0.0
664828,2027.0,432.0,159.2,0.0
664829,2029.0,432.0,159.2,0.0
664829,2031.0,432.0,159.2,0.0
664846,2023.0,431.0,159.2,0.0
664846,2030.0,431.0,159.2,0.0
664846,1999.0,431.0,159.2,0.0
664847,2016.0,431.0,159.2,0.0
664859,2059.0,431.0,159.2,0.0
664860,2039.0,431.0,159.2,0.0
664860,2057.0,431.0,159.2,0.0
664872,2056.0,431.0,159.2,0.0
664873,2057.0,431.0,159.2,0.0
664873,2056.0,431.0,159.2,0.0
664873,2059.0,431.0,159.2,0.0
664890,2040.0,430.0,159.2,0.0
664890,2041.0,430.0,159.2,0.0
664891,2046.0,430.0,159.2,0.0
664891,2053.0,430.0,159.2,0.0
664904,2026.0,429.0,159.2,0.0
664905,2030.0,429.0,159.2,0.0
664905,2037.0,429.0,159.2,0.0
664921,2057.0,429.0,159.2,0.0
664921,2058.0,429.0,159.2,0.0
664921,2049.0,429.0,159.2,0.0
664922,2051.0,429.0,159.2,0.0
664935,2073.0,429.0,159.2,0.0
664936,2055.0,429.0,159.2,0.0
664936,2064.0,429.0,159.2,0.0
664948,2025.0,428.0,159.2,0.0
664949,2030.0,428.0,159.2,0.0
664949,2030.0,428.0,159.2,0.0
664949,2035.0,428.0,159.2,0.0
664967,2022.0,428.0,159.2,0.0
664967,2021.0,428.0,159.2,0.0
664968,2036.0,428.0,159.2,0.0
664968,2030.0,428.0,159.2,0.0
664981,2058.0,428.0,159.2,0.0
664981,2053.0,428.0,159.2,0.0
664981,2084.0,428.0,159.2,0.0
664995,2070.0,428.0,159.2,0.0
664995,2069.0,428.0,159.2,0.0
664995,2069.0,428.0,159.2,0.0
664996,2065.0,428.0,159.2,0.0
665011,2033.0,427.0,159.2,0.0
665012,2043.0,427.0,159.2,0.0
665012,2056.0,427.0,159.2,0.0
665012,2055.0,427.0,159.2,0.0
665026,2036.0,426.0,159.2,0.0
665026,2026.0,426.0,159.2,0.0
665026,2032.0,426.0,159.2,0.0
665042,2051.0,426.0,159.2,0.0
665043,2043.0,426.0,159.2,0.0
665043,2053.0,426.0,159.2,0.0
665043,2043.0,426.0,159.2,0.0
665056,2065.0,426.0,159.2,0.0
665057,2061.0,426.0,159.2,0.0
665057,2063.0,426.0,159.2,0.0
665070,2040.0,426.0,159.2,0.0
665070,2016.0,426.0,159.2,0.0
665070,2047.0,426.0,159.2,0.0
665071,2053.0,426.0,159.2,0.0
665089,2023.0,426.0,159.2,0.0
665089,2030.0,426.0,159.2,0.0
665089,2031.0,426.0,159.2,0.0
665089,2043.0,426.0,159.2,0.0
665102,2036.0,426.0,159.2,0.0
665102,2037.0,426.0,159.2,0.0
665103,2030.0,426.0,159.2,0.0
665116,2075.0,425.0,159.2,0.0
665117,2067.0,425.0,159.2,0.0
665117,2064.0,425.0,159.2,0.0
665117,2090.0,425.0,159.2,0.0
665134,2063.0,425.0,159.2,0.0
665134,2069.0,425.0,159.2,0.0
665134,2067.0,425.0,159.2,0.0
665134,2070.0,425.0,159.2,0.0
665147,2028.0,425.0,159.2,0.0
665147,2025.0,425.0,159.2,0.0
665148,2033.0,425.0,159.2,0.0
665160,2054.0,425.0,159.2,0.0
665161,2050.0,425.0,159.2,0.0
665161,2052.0,425.0,159.2,0.0
665161,2044.0,425.0,159.2,0.0
665178,2071.0,426.0,159.2,0.0
665178,2060.0,426.0,159.2,0.0
665179,2063.0,426.0,159.2,0.0
665179,2064.0,426.0,159.2,0.0
665191,2049.0,426.0,159.2,0.0
665192,2055.0,426.0,159.2,0.0
665192,2051.0,426.0,159.2,0.0
665209,2029.0,426.0,159.2,0.0
665209,2033.0,426.0,159.2,0.0
665209,2033.0,426.0,159.2,0.0
665210,2042.0,426.0,159.2,0.0
665223,2040.0,426.0,159.2,0.0
665224,2040.0,426.0,159.2,0.0
665224,2042.0,426.0,159.2,0.0
665236,2073.0,426.0,159.2,0.0
665237,2064.0,426.0,159.2,0.0
665237,2046.0,426.0,159.2,0.0
665237,2060.0,426.0,159.2,0.0
665254,2069.0,426.0,159.2,0.0
665254,2070.0,426.0,159.2,0.0
665254,2073.0,426.0,159.2,0.0
665255,2073.0,426.0,159.2,0.0
665267,2027.0,426.0,159.2,0.0
665268,2031.0,426.0,159.2,0.0
665268,2029.0,426.0,159.2,0.0
665285,2042.0,427.0,159.2,0.0
665285,2038.0,427.0,159.2,0.0
665285,2023.0,427.0,159.2,0.0
665286,2037.0,427.0,159.2,0.0
665298,2063.0,427.0,159.2,0.0
665299,2032.0,427.0,159.2,0.0
665299,2067.0,427.0,159.2,0.0
665311,2046.0,427.0,159.2,0.0
665312,2057.0,427.0,159.2,0.0
665312,2063.0,427.0,159.2,0.0
665312,2055.0,427.0,159.2,0.0
665330,2027.0,426.0,159.2,0.0
665330,2045.0,426.0,159.2,0.0
665330,2044.0,426.0,159.2,0.0
665331,2044.0,426.0,159.2,0.0
665344,2037.0,427.0,159.2,0.0
665345,2039.0,427.0,159.2,0.0
665345,2033.0,427.0,159.2,0.0
665357,2067.0,427.0,159.2,0.0
665358,2061.0,427.0,159.2,0.0
665358,2067.0,427.0,159.2,0.0
665358,2064.0,427.0,159.2,0.0
665375,2073.0,427.0,159.2,0.0
665375,2070.0,427.0,159.2,0.0
665375,2071.0,427.0,159.2,0.0
665376,2070.0,427.0,159.2,0.0
665388,2028.0,427.0,159.2,0.0
665389,2030.0,427.0,159.2,0.0
665389,2028.0,427.0,159.2,0.0
665406,2033.0,427.0,159.2,0.0
665406,2034.0,427.0,159.2,0.0
665406,2039.0,427.0,159.2,0.0
665406,2027.0,427.0,159.2,0.0
665419,2057.0,428.0,159.2,0.0
665419,2043.0,428.0,159.2,0.0
665420,2064.0,428.0,159.2,0.0
665433,2067.0,428.0,159.2,0.0
665434,2061.0,428.0,159.2,0.0
665434,2069.0,428.0,159.2,0.0
665434,2063.0,428.0,159.2,0.0
665451,2038.0,428.0,159.2,0.0
665451,2054.0,428.0,159.2,0.0
665451,2048.0,428.0,159.2,0.0
665452,2049.0,428.0,159.2,0.0
665465,2036.0,428.0,159.2,0.0
665466,2027.0,428.0,159.2,0.0
665466,2038.0,428.0,159.2,0.0
665478,2070.0,428.0,159.2,0.0
665479,2058.0,428.0,159.2,0.0
665479,2049.0,428.0,159.2,0.0
665479,2068.0,428.0,159.2,0.0
665497,2070.0,428.0,159.2,0.0
665497,2066.0,428.0,159.2,0.0
665497,2074.0,428.0,159.2,0.0
665498,2061.0,428.0,159.2,0.0
665510,2040.0,428.0,159.2,0.0
665511,2041.0,428.0,159.2,0.0
665511,2038.0,428.0,159.2,0.0
665527,2035.0,428.0,159.2,0.0
665528,2038.0,428.0,159.2,0.0
665528,2033.0,428.0,159.2,0.0
665528,2046.0,428.0,159.2,0.0
665541,2053.0,428.0,159.2,0.0
665541,2051.0,428.0,159.2,0.0
665541,2051.0,428.0,159.2,0.0
665555,2063.0,428.0,159.2,0.0
665555,2052.0,428.0,159.2,0.0
665556,2056.0,428.0,159.2,0.0
665556,2060.0,428.0,159.2,0.0
665573,2057.0,428.0,159.2,0.0
665574,2062.0,428.0,159.2,0.0
665574,2069.0,428.0,159.2,0.0
665574,2070.0,428.0,159.2,0.0
665587,2027.0,428.0,159.2,0.0
665587,2024.0,428.0,159.2,0.0
665587,2031.0,428.0,159.2,0.0
665600,2056.0,428.0,159.2,0.0
665600,2146.0,428.0,158.3,0.0
665601,2052.0,428.0,158.3,0.0
665601,2058.0,428.0,158.3,0.0
665618,2082.0,428.0,158.3,0.0
665618,2060.0,428.0,158.3,0.0
665618,2061.0,428.0,158.3,0.0
665618,2055.0,428.0,158.3,0.0
665632,2054.0,429.0,158.3,0.0
665632,2057.0,429.0,158.3,0.0
665632,2044.0,429.0,158.3,0.0
665648,2022.0,429.0,158.3,0.0
665649,2027.0,429.0,158.3,0.0
665649,2037.0,429.0,158.3,0.0
665649,2038.0,429.0,158.3,0.0
665663,2044.0,429.0,158.3,0.0
665663,2046.0,429.0,158.3,0.0
665663,2051.0,429.0,158.3,0.0
665676,2071.0,429.0,158.3,0.0
665676,2070.0,429.0,158.3,0.0
665676,2060.0,429.0,158.3,0.0
665677,2059.0,429.0,158.3,0.0
665694,2067.0,429.0,158.3,0.0
665695,2068.0,429.0,158.3,0.0
665695,2093.0,429.0,158.3,0.0
665695,2064.0,429.0,158.3,0.0
665708,2027.0,429.0,158.3,0.0
665708,2022.0,429.0,158.3,0.0
665708,2035.0,429.0,158.3,0.0
665722,2051.0,429.0,158.3,0.0
665722,2043.0,429.0,158.3,0.0
665722,2045.0,429.0,158.3,0.0
665723,2054.0,429.0,158.3,0.0
665738,2074.0,429.0,158.3,0.0
665739,2060.0,429.0,158.3,0.0
665739,2057.0,429.0,158.3,0.0
665739,2063.0,429.0,158.3,0.0
665753,2063.0,430.0,158.3,0.0
665753,2056.0,430.0,158.3,0.0
665753,2053.0,430.0,158.3,0.0
665769,2027.0,430.0,158.3,0.0
665770,2034.0,430.0,158.3,0.0
665770,2041.0,430.0,158.3,0.0
665770,2036.0,430.0,158.3,0.0
665783,2038.0,430.0,158.3,0.0
665784,2039.0,430.0,158.3,0.0
665784,2040.0,430.0,158.3,0.0
665797,2069.0,430.0,158.3,0.0
665797,2085.0,430.0,158.3,0.0
665797,2076.0,430.0,158.3,0.0
665797,2074.0,430.0,158.3,0.0
665815,2070.0,431.0,158.3,0.0
665816,2069.0,431.0,158.3,0.0
665816,2065.0,431.0,158.3,0.0
665816,2068.0,431.0,158.3,0.0
665828,2025.0,431.0,158.3,0.0
665829,2033.0,431.0,158.3,0.0
665829,2032.0,431.0,158.3,0.0
665843,2039.0,431.0,158.3,0.0
665843,2041.0,431.0,158.3,0.0
665843,2043.0,431.0,158.3,0.0
665843,2043.0,431.0,158.3,0.0
665859,2061.0,431.0,158.3,0.0
665860,2067.0,431.0,158.3,0.0
665860,2032.0,431.0,158.3,0.0
665860,2054.0,431.0,158.3,0.0
665874,2053.0,431.0,158.3,0.0
665874,2061.0,431.0,158.3,0.0
665874,2057.0,431.0,158.3,0.0
665892,2023.0,431.0,158.3,0.0
665892,2015.0,431.0,158.3,0.0
665892,2017.0,431.0,158.3,0.0
665892,2020.0,431.0,158.3,0.0
665905,2029.0,431.0,158.3,0.0
665906,2027.0,431.0,158.3,0.0
665906,2030.0,431.0,158.3,0.0
665918,2063.0,431.0,158.3,0.0
665919,2058.0,431.0,158.3,0.0
665919,2058.0,431.0,158.3,0.0
665919,2058.0,431.0,158.3,0.0
665937,2070.0,431.0,158.3,0.0
665937,2062.0,431.0,158.3,0.0
665938,2083.0,431.0,158.3,0.0
665938,2063.0,431.0,158.3,0.0
665951,2037.0,432.0,158.3,0.0
665952,2051.0,432.0,158.3,0.0
665952,2043.0,432.0,158.3,0.0
665965,2030.0,432.0,158.3,0.0
665965,2026.0,432.0,158.3,0.0
665965,2035.0,432.0,158.3,0.0
665965,2000.0,432.0,158.3,0.0
665982,2047.0,432.0,158.3,0.0
665983,2041.0,432.0,158.3,0.0
665983,2041.0,432.0,158.3,0.0
665983,2047.0,432.0,158.3,0.0
665996,2073.0,432.0,158.3,0.0
665996,2076.0,432.0,158.3,0.0
665996,2085.0,432.0,144.6,0.0
666009,2023.0,433.0,144.6,0.0
666009,2028.0,433.0,144.6,0.0
666010,2032.0,433.0,144.6,0.0
666010,2025.0,433.0,144.6,0.0
666027,2027.0,433.0,144.6,0.0
666027,2026.0,433.0,144.6,0.0
666027,2043.0,433.0,144.6,0.0
666027,2040.0,433.0,144.6,0.0
666041,2065.0,433.0,144.6,0.0
666042,2062.0,433.0,144.6,0.0
666042,2050.0,433.0,144.6,0.0
666058,2054.0,433.0,144.6,0.0
666059,2058.0,433.0,144.6,0.0
666059,2052.0,433.0,144.6,0.0
666059,2046.0,433.0,144.6,0.0
666073,2060.0,434.0,144.6,0.0
666073,2060.0,434.0,144.6,0.0
666073,2060.0,434.0,144.6,0.0
666086,2032.0,434.0,144.6,0.0
666086,2022.0,434.0,144.6,0.0
666086,2026.0,434.0,144.6,0.0
666087,2029.0,434.0,144.6,0.0
666103,2048.0,435.0,144.6,0.0
666104,2040.0,435.0,144.6,0.0
666104,2038.0,435.0,144.6,0.0
666104,2037.0,435.0,144.6,0.0
666117,2068.0,435.0,144.6,0.0
666117,2076.0,435.0,144.6,0.0
666117,2059.0,435.0,144.6,0.0
666131,2032.0,435.0,144.6,0.0
666131,2037.0,435.0,144.6,0.0
666131,2040.0,435.0,144.6,0.0
666131,2034.0,435.0,144.6,0.0
666147,2021.0,436.0,144.6,0.0
666148,2023.0,436.0,144.6,0.0
666148,2028.0,436.0,144.6,0.0
666148,2015.0,436.0,144.6,0.0
666162,2059.0,436.0,144.6,0.0
666162,2050.0,436.0,144.6,0.0
666162,2045.0,436.0,144.6,0.0
666179,2062.0,436.0,144.6,0.0
666179,2063.0,436.0,144.6,0.0
666179,2054.0,436.0,144.6,0.0
666179,2056.0,436.0,144.6,0.0
666193,2058.0,436.0,144.6,0.0
666194,2051.0,436.0,144.6,0.0
666194,2063.0,436.0,144.6,0.0
666207,2028.0,436.0,144.6,0.0
666207,2008.0,436.0,144.6,0.0
666207,2022.0,436.0,144.6,0.0
666207,2014.0,436.0,144.6,0.0
666224,2057.0,438.0,144.6,0.0
666224,2039.0,438.0,144.6,0.0
666225,2046.0,438.0,144.6,0.0
666225,2043.0,438.0,144.6,0.0
666237,2062.0,438.0,144.6,0.0
666238,2061.0,438.0,144.6,0.0
666238,2065.0,438.0,144.6,0.0
666251,2044.0,438.0,144.6,0.0
666252,2036.0,438.0,144.6,0.0
666252,2046.0,438.0,144.6,0.0
666252,2050.0,438.0,144.6,0.0
666268,2035.0,438.0,144.6,0.0
666269,2016.0,438.0,144.6,0.0
666269,2030.0,438.0,144.6,0.0
666269,2057.0,438.0,144.6,0.0
666282,2042.0,438.0,144.6,0.0
666283,2054.0,438.0,144.6,0.0
666283,2057.0,438.0,144.6,0.0
666300,2056.0,438.0,144.6,0.0
666301,2057.0,438.0,144.6,0.0
666301,2055.0,438.0,144.6,0.0
666301,2057.0,438.0,144.6,0.0
666314,2059.0,438.0,144.6,0.0
666314,2059.0,438.0,144.6,0.0
666314,2057.0,438.0,144.6,0.0
666327,2004.0,438.0,144.6,0.0
666327,2028.0,438.0,144.6,0.0
666327,2035.0,438.0,144.6,0.0
666328,2022.0,438.0,144.6,0.0
666345,2034.0,437.0,144.6,0.0
666345,2024.0,437.0,144.6,0.0
666345,2026.0,437.0,144.6,0.0
666346,2035.0,437.0,144.6,0.0
666359,2062.0,437.0,144.6,0.0
666360,2058.0,437.0,144.6,0.0
666360,2058.0,437.0,144.6,0.0
666376,2072.0,437.0,144.6,0.0
666376,2077.0,437.0,164.5,0.0
666376,2059.0,437.0,164.5,0.0
666377,2065.0,437.0,164.5,0.0
666390,2033.0,437.0,164.5,0.0
666390,2033.0,437.0,164.5,0.0
666391,2040.0,437.0,164.5,0.0
666403,2042.0,437.0,164.5,0.0
666404,2040.0,437.0,164.5,0.0
666404,2040.0,437.0,164.5,0.0
666404,2045.0,437.0,164.5,0.0
666422,2056.0,437.0,164.5,0.0
666422,2050.0,437.0,164.5,0.0
666422,2075.0,437.0,164.5,0.0
666423,2050.0,437.0,164.5,0.0
666435,2058.0,436.0,164.5,0.0
666436,2060.0,436.0,164.5,0.0
666436,2072.0,436.0,164.5,0.0
666449,2028.0,436.0,164.5,0.0
666450,2031.0,436.0,164.5,0.0
666450,2032.0,436.0,164.5,0.0
666450,2034.0,436.0,164.5,0.0
666466,2043.0,436.0,164.5,0.0
666467,2034.0,436.0,164.5,0.0
666467,2042.0,436.0,164.5,0.0
666467,2030.0,436.0,164.5,0.0
666481,2052.0,436.0,164.5,0.0
666481,2048.0,436.0,164.5,0.0
666482,2054.0,436.0,164.5,0.0
666499,2074.0,436.0,164.5,0.0
666499,2073.0,436.0,164.5,0.0
666499,2069.0,436.0,164.5,0.0
666499,2067.0,436.0,164.5,0.0
666512,2043.0,436.0,164.5,0.0
666513,2049.0,436.0,164.5,0.0
666513,2048.0,436.0,164.5,0.0
666525,2035.0,436.0,164.5,0.0
666526,2037.0,436.0,164.5,0.0
666526,2035.0,436.0,164.5,0.0
666526,2048.0,436.0,164.5,0.0
666544,2041.0,436.0,164.5,0.0
666544,2051.0,436.0,164.5,0.0
666544,2052.0,436.0,164.5,0.0
666545,2051.0,436.0,164.5,0.0
666557,2069.0,436.0,164.5,0.0
666558,2063.0,436.0,164.5,0.0
666558,2060.0,436.0,164.5,0.0
666571,2037.0,435.0,164.5,0.0
666572,2045.0,435.0,164.5,0.0
666572,2047.0,435.0,164.5,0.0
666572,2053.0,435.0,164.5,0.0
666589,2024.0,435.0,164.5,0.0
666589,2031.0,435.0,164.5,0.0
666590,1912.0,435.0,164.5,0.0
666590,2032.0,435.0,164.5,0.0
666602,2046.0,435.0,164.5,0.0
666603,2036.0,435.0,164.5,0.0
666603,2045.0,435.0,164.5,0.0
666620,2067.0,435.0,164.5,0.0
666620,2067.0,435.0,164.5,0.0
666621,2059.0,435.0,164.5,0.0
666621,2063.0,435.0,164.5,0.0
666633,2053.0,435.0,164.5,0.0
666634,2056.0,435.0,164.5,0.0
666634,2052.0,435.0,164.5,0.0
666647,2036.0,435.0,164.5,0.0
666647,2037.0,435.0,164.5,0.0
666647,2067.0,435.0,164.5,0.0
666647,2042.0,435.0,164.5,0.0
666665,2051.0,435.0,164.5,0.0
666666,2039.0,435.0,164.5,0.0
666666,2032.0,435.0,164.5,0.0
666666,2035.0,435.0,164.5,0.0
666680,2059.0,435.0,164.5,0.0
666680,2056.0,435.0,164.5,0.0
666680,2056.0,435.0,164.5,0.0
666693,2054.0,435.0,164.5,0.0
666693,2053.0,435.0,164.5,0.0
666693,2058.0,435.0,164.5,0.0
666694,2058.0,435.0,164.5,0.0
666710,2034.0,435.0,164.5,0.0
666711,2034.0,435.0,164.5,0.0
666711,2062.0,435.0,164.5,0.0
666711,2041.0,435.0,164.5,0.0
666724,2052.0,435.0,164.5,0.0
666724,2032.0,435.0,164.5,0.0
666725,2040.0,435.0,164.5,0.0
666738,2062.0,435.0,164.5,0.0
666739,2058.0,435.0,164.5,0.0
666739,2062.0,435.0,164.5,0.0
666739,2063.0,435.0,164.5,0.0
666755,2074.0,435.0,164.5,0.0
666755,2062.0,435.0,164.5,0.0
666755,2061.0,435.0,164.5,0.0
666756,2067.0,435.0,164.5,0.0
666769,2025.0,436.0,164.5,0.0
666770,2025.0,436.0,164.5,0.0
666770,2028.0,436.0,164.5,0.0
666786,2033.0,436.0,164.5,0.0
666787,2028.0,436.0,164.5,0.0
666787,2029.0,436.0,164.5,0.0
666787,2034.0,436.0,164.5,0.0
666801,2061.0,436.0,164.5,0.0
666801,2058.0,436.0,164.5,0.0
666801,2057.0,436.0,164.5,0.0
666814,2056.0,436.0,164.5,0.0
666814,2054.0,436.0,164.5,0.0
666814,2057.0,436.0,164.5,0.0
666815,2043.0,436.0,164.5,0.0
666831,2026.0,435.0,164.5,0.0
666832,2041.0,435.0,164.5,0.0
666832,2040.0,435.0,164.5,0.0
666832,2040.0,435.0,164.5,0.0
666845,2042.0,435.0,164.5,0.0
666845,2039.0,435.0,164.5,0.0
666845,2026.0,435.0,164.5,0.0
666859,2060.0,436.0,164.5,0.0
666859,2093.0,436.0,164.5,0.0
666859,2063.0,436.0,164.5,0.0
666860,2068.0,436.0,164.5,0.0
666875,2064.0,436.0,164.5,0.0
666876,2045.0,436.0,164.5,0.0
666876,2064.0,436.0,164.5,0.0
666876,2063.0,436.0,164.5,0.0
666890,2032.0,436.0,164.5,0.0
666890,2033.0,436.0,164.5,0.0
666890,2025.0,436.0,164.5,0.0
666907,2023.0,435.0,164.5,0.0
666908,2030.0,435.0,164.5,0.0
666908,2037.0,435.0,164.5,0.0
666908,2039.0,435.0,164.5,0.0
666921,1964.0,435.0,164.5,0.0
666921,2033.0,435.0,164.5,0.0
666921,2053.0,435.0,133.0,0.0
666934,2058.0,435.0,133.0,0.0
666934,2065.0,435.0,133.0,0.0
666935,2059.0,435.0,133.0,0.0
666935,2063.0,435.0,133.0,0.0
666952,2044.0,436.0,133.0,0.0
666952,2053.0,436.0,133.0,0.0
666952,2051.0,436.0,133.0,0.0
666953,2062.0,436.0,133.0,0.0
666965,2024.0,436.0,133.0,0.0
666965,2026.0,436.0,133.0,0.0
666966,2032.0,436.0,133.0,0.0
666979,2065.0,436.0,133.0,0.0
666980,2057.0,436.0,133.0,0.0
666980,2066.0,436.0,133.0,0.0
666980,2064.0,436.0,133.0,0.0
666996,2065.0,436.0,133.0,0.0
666996,2066.0,436.0,133.0,0.0
666996,2074.0,436.0,133.0,0.0
666996,2061.0,436.0,133.0,0.0
667010,2022.0,435.0,133.0,0.0
667010,2044.0,435.0,133.0,0.0
667011,2030.0,435.0,133.0,0.0
667027,2035.0,435.0,133.0,0.0
667028,2026.0,435.0,133.0,0.0
667028,2026.0,435.0,133.0,0.0
667028,2031.0,435.0,133.0,0.0
667041,2055.0,435.0,133.0,0.0
667041,2050.0,435.0,133.0,0.0
667042,2045.0,435.0,133.0,0.0
667054,2055.0,435.0,133.0,0.0
667054,2060.0,435.0,133.0,0.0
667055,2059.0,435.0,133.0,0.0
667055,2062.0,435.0,133.0,0.0
667072,2038.0,434.0,133.0,0.0
667072,2044.0,434.0,133.0,0.0
667072,2056.0,434.0,133.0,0.0
667073,2057.0,434.0,133.0,0.0
667085,2029.0,434.0,133.0,0.0
667086,2011.0,434.0,133.0,0.0
667086,2034.0,434.0,133.0,0.0
667103,2056.0,434.0,133.0,0.0
667103,2041.0,434.0,133.0,0.0
667103,2060.0,434.0,133.0,0.0
667104,2062.0,434.0,133.0,0.0
667117,2056.0,433.0,133.0,0.0
667118,2058.0,433.0,133.0,0.0
667118,2057.0,433.0,133.0,0.0
667130,2039.0,433.0,133.0,0.0
667131,2038.0,433.0,133.0,0.0
667131,2039.0,433.0,133.0,0.0
667131,2034.0,433.0,133.0,0.0
667149,2028.0,433.0,133.0,0.0
667149,2028.0,433.0,133.0,0.0
667150,2036.0,433.0,133.0,0.0
667150,2036.0,433.0,133.0,0.0
667162,2067.0,433.0,133.0,0.0
667163,2048.0,433.0,133.0,0.0
667163,2049.0,433.0,133.0,0.0
667176,2045.0,432.0,133.0,0.0
667177,2065.0,432.0,133.0,0.0
667177,2070.0,432.0,133.0,0.0
667177,2068.0,432.0,133.0,0.0
667193,2045.0,432.0,133.0,0.0
667193,2062.0,432.0,133.0,0.0
667194,2055.0,432.0,133.0,0.0
667194,2055.0,432.0,133.0,0.0
667207,2027.0,431.0,133.0,0.0
667208,2038.0,431.0,133.0,0.0
667208,2033.0,431.0,133.0,0.0
667224,2042.0,431.0,133.0,0.0
667224,2041.0,431.0,133.0,0.0
667224,2043.0,431.0,133.0,0.0
667225,2026.0,431.0,133.0,0.0
667238,2091.0,430.0,133.0,0.0
667239,2082.0,430.0,133.0,0.0
667239,2070.0,430.0,133.0,0.0
667251,2024.0,430.0,133.0,0.0
667252,2046.0,430.0,133.0,0.0
667252,2046.0,430.0,133.0,0.0
667252,2033.0,430.0,133.0,0.0
667270,2023.0,429.0,133.0,0.0
667271,2035.0,429.0,133.0,0.0
667271,2039.0,429.0,133.0,0.0
667271,2037.0,429.0,133.0,0.0
667284,2035.0,429.0,133.0,0.0
667284,2034.0,429.0,133.0,0.0
667284,2044.0,429.0,133.0,0.0
667298,2072.0,428.0,133.0,0.0
667298,2062.0,428.0,133.0,0.0
667298,2061.0,428.0,133.0,0.0
667299,2059.0,428.0,133.0,0.0
667314,2056.0,428.0,133.0,0.0
667315,2063.0,428.0,133.0,0.0
667315,2057.0,428.0,133.0,0.0
667315,2057.0,428.0,133.0,0.0
667329,2022.0,428.0,133.0,0.0
667329,2029.0,428.0,133.0,0.0
667329,2036.0,428.0,133.0,0.0
667346,2040.0,427.0,133.0,0.0
667346,2035.0,427.0,133.0,0.0
667347,2042.0,427.0,133.0,0.0
667347,2040.0,427.0,133.0,0.0
667359,2055.0,427.0,133.0,0.0
667360,2056.0,427.0,133.0,0.0
667360,2056.0,427.0,133.0,0.0
667373,2041.0,427.0,133.0,0.0
667373,2048.0,427.0,133.0,0.0
667373,2031.0,427.0,133.0,0.0
667373,2050.0,427.0,133.0,0.0
667391,2041.0,428.0,133.0,0.0
667392,2042.0,428.0,133.0,0.0
667392,2048.0,428.0,133.0,0.0
667392,2049.0,428.0,133.0,0.0
667406,2044.0,427.0,133.0,0.0
667406,2041.0,427.0,133.0,0.0
667406,2037.0,427.0,133.0,0.0
667419,2055.0,427.0,133.0,0.0
667420,2065.0,427.0,133.0,0.0
667420,2066.0,427.0,133.0,0.0
667420,2058.0,427.0,133.0,0.0
667437,2068.0,427.0,133.0,0.0
667437,2073.0,427.0,133.0,0.0
667437,2071.0,427.0,133.0,0.0
667438,2060.0,427.0,133.0,0.0
667450,2003.0,427.0,133.0,0.0
667450,2029.0,427.0,133.0,0.0
667451,2030.0,427.0,133.0,0.0
667463,2045.0,427.0,133.0,0.0
667464,2048.0,427.0,133.0,0.0
667464,2044.0,427.0,133.0,0.0
667481,2061.0,427.0,133.0,0.0
667481,2074.0,427.0,133.0,0.0
667481,2068.0,427.0,133.0,0.0
667481,2060.0,427.0,133.0,0.0
667494,2049.0,427.0,133.0,0.0
667495,2044.0,427.0,133.0,0.0
667495,2057.0,427.0,133.0,0.0
667512,2037.0,426.0,133.0,0.0
667512,2051.0,426.0,133.0,0.0
667512,2052.0,426.0,133.0,0.0
667512,2045.0,426.0,133.0,0.0
667526,2039.0,426.0,133.0,0.0
667526,2039.0,426.0,133.0,0.0
667527,2033.0,426.0,133.0,0.0
667539,2074.0,426.0,133.0,0.0
667540,2073.0,426.0,133.0,0.0
667540,2080.0,426.0,133.0,0.0
667540,2071.0,426.0,133.0,0.0
667557,2062.0,426.0,133.0,0.0
667558,2065.0,426.0,133.0,0.0
667558,2066.0,426.0,133.0,0.0
667558,2059.0,426.0,133.0,0.0
667570,2028.0,426.0,133.0,0.0
667571,2038.0,426.0,133.0,0.0
667571,2039.0,426.0,133.0,0.0
667584,2037.0,426.0,133.0,0.0
667584,2058.0,426.0,133.0,0.0
667584,2043.0,426.0,133.0,0.0
667601,2071.0,425.0,133.0,0.0
667601,2056.0,425.0,133.0,0.0
667602,2057.0,425.0,133.0,0.0
667602,2063.0,425.0,133.0,0.0
667615,2043.0,425.0,133.0,0.0
667616,2060.0,425.0,133.0,0.0
667616,2056.0,425.0,133.0,0.0
667632,2045.0,425.0,133.0,0.0
667632,2040.0,425.0,133.0,0.0
667632,2038.0,425.0,133.0,0.0
667633,2042.0,425.0,133.0,0.0
667646,2034.0,426.0,133.0,0.0
667647,2035.0,426.0,133.0,0.0
667647,2036.0,426.0,133.0,0.0
667659,2061.0,426.0,133.0,0.0
667660,2059.0,426.0,133.0,0.0
667660,2064.0,426.0,133.0,0.0
667660,2061.0,426.0,133.0,0.0
667677,2056.0,426.0,133.0,0.0
667677,2055.0,426.0,133.0,0.0
667678,2068.0,426.0,133.0,0.0
667678,2067.0,426.0,133.0,0.0
667690,2030.0,426.0,133.0,0.0
667691,2032.0,426.0,133.0,0.0
667691,2030.0,426.0,133.0,0.0
667705,2039.0,427.0,133.0,0.0
667705,2050.0,427.0,133.0,0.0
667705,2038.0,427.0,133.0,0.0
667706,2040.0,427.0,133.0,0.0
667721,2070.0,427.0,133.0,0.0
667722,2056.0,427.0,133.0,0.0
667722,2055.0,427.0,133.0,0.0
667722,2061.0,427.0,133.0,0.0
667736,2058.0,427.0,133.0,0.0
667736,2053.0,427.0,133.0,0.0
667736,2052.0,427.0,133.0,0.0
667753,2018.0,427.0,133.0,0.0
667753,2047.0,427.0,133.0,0.0
667753,2065.0,427.0,133.0,0.0
667753,2056.0,427.0,133.0,0.0
667767,2031.0,427.0,133.0,0.0
667767,2032.0,427.0,133.0,0.0
667768,2037.0,427.0,133.0,0.0
667780,2073.0,427.0,133.0,0.0
667780,2057.0,427.0,133.0,0.0
667781,2058.0,427.0,133.0,0.0
667781,2054.0,427.0,133.0,0.0
667798,2073.0,427.0,133.0,0.0
667798,2070.0,427.0,133.0,0.0
667798,2067.0,427.0,133.0,0.0
667799,2068.0,427.0,133.0,0.0
667811,2039.0,427.0,133.0,0.0
667812,2014.0,427.0,133.0,0.0
667812,2037.0,427.0,133.0,0.0
667829,2026.0,428.0,133.0,0.0
667829,2025.0,428.0,133.0,0.0
667829,2035.0,428.0,133.0,0.0
667829,1973.0,428.0,133.0,0.0
667842,2054.0,428.0,133.0,0.0
667843,2052.0,428.0,133.0,0.0
667843,2056.0,428.0,133.0,0.0
667856,2069.0,428.0,133.0,0.0
667857,2072.0,428.0,133.0,0.0
667857,2067.0,428.0,133.0,0.0
667857,2064.0,428.0,133.0,0.0
667875,2057.0,428.0,133.0,0.0
667875,2068.0,428.0,133.0,0.0
667875,2067.0,428.0,133.0,0.0
667876,2062.0,428.0,133.0,0.0
667888,2027.0,428.0,133.0,0.0
667889,2030.0,428.0,133.0,0.0
667889,2031.0,428.0,133.0,0.0
667901,2058.0,428.0,133.0,0.0
667902,2053.0,428.0,133.0,0.0
667902,2051.0,428.0,133.0,0.0
667902,2061.0,428.0,133.0,0.0
667919,2073.0,428.0,133.0,0.0
667920,2072.0,428.0,133.0,0.0
667920,2073.0,428.0,133.0,0.0
667920,2066.0,428.0,133.0,0.0
667932,2039.0,428.0,133.0,0.0
667933,2042.0,428.0,133.0,0.0
667933,2047.0,428.0,133.0,0.0
667947,2031.0,427.0,133.0,0.0
667947,2040.0,427.0,133.0,0.0
667947,2043.0,427.0,133.0,0.0
667948,2040.0,427.0,133.0,0.0
667964,2047.0,427.0,133.0,0.0
667965,2042.0,427.0,133.0,0.0
667965,2040.0,427.0,133.0,0.0
667965,2043.0,427.0,133.0,0.0
667978,2067.0,427.0,133.0,0.0
667978,2068.0,427.0,133.0,0.0
667978,2066.0,427.0,133.0,0.0
667995,2058.0,428.0,133.0,0.0
667996,2058.0,428.0,133.0,0.0
667996,2059.0,428.0,133.0,0.0
667996,2066.0,428.0,133.0,0.0
668008,2027.0,428.0,133.0,0.0
668009,2032.0,428.0,133.0,0.0
668009,2028.0,428.0,133.0,0.0
668022,2055.0,428.0,133.0,0.0
668022,2055.0,428.0,133.0,0.0
668022,2045.0,428.0,133.0,0.0
668039,2074.0,428.0,133.0,0.0
668039,2072.0,428.0,133.0,0.0
668040,2068.0,428.0,133.0,0.0
668040,2044.0,428.0,133.0,0.0
668053,2041.0,428.0,133.0,0.0
668054,2044.0,428.0,133.0,0.0
668054,2052.0,428.0,133.0,0.0
668067,2037.0,428.0,133.0,0.0
668068,2035.0,428.0,133.0,0.0
668068,2031.0,428.0,133.0,0.0
668068,2036.0,428.0,133.0,0.0
668085,2026.0,428.0,133.0,0.0
668085,2027.0,428.0,133.0,0.0
668085,2046.0,428.0,133.0,0.0
668086,2044.0,428.0,133.0,0.0
668098,2071.0,428.0,133.0,0.0
668099,2070.0,428.0,133.0,0.0
668099,2067.0,428.0,133.0,0.0
668116,2063.0,428.0,133.0,0.0
668116,2061.0,428.0,133.0,0.0
668116,2066.0,428.0,133.0,0.0
668116,2066.0,428.0,133.0,0.0
668129,2030.0,429.0,133.0,0.0
668129,2030.0,429.0,133.0,0.0
668130,2027.0,429.0,133.0,0.0
668143,2055.0,429.0,133.0,0.0
668144,2039.0,429.0,133.0,0.0
668144,2050.0,429.0,133.0,0.0
668144,2060.0,429.0,133.0,0.0
668160,2076.0,429.0,133.0,0.0
668160,2066.0,429.0,133.0,0.0
668160,2060.0,429.0,133.0,0.0
668161,2069.0,429.0,133.0,0.0
668174,2048.0,430.0,133.0,0.0
668174,2055.0,430.0,133.0,0.0
668175,2055.0,430.0,133.0,0.0
668190,2032.0,430.0,133.0,0.0
668191,2039.0,430.0,133.0,0.0
668191,2040.0,430.0,133.0,0.0
668191,2054.0,430.0,133.0,0.0
668205,2055.0,430.0,133.0,0.0
668205,2040.0,430.0,133.0,0.0
668205,2040.0,430.0,133.0,0.0
668218,2071.0,430.0,133.0,0.0
668218,2068.0,430.0,133.0,0.0
668218,2059.0,430.0,133.0,0.0
668219,2071.0,430.0,133.0,0.0
668236,2070.0,430.0,133.0,0.0
668237,2068.0,430.0,133.0,0.0
668237,2065.0,430.0,133.0,0.0
668237,2083.0,430.0,133.0,0.0
668250,2035.0,430.0,133.0,0.0
668250,2029.0,430.0,133.0,0.0
668250,2030.0,430.0,133.0,0.0
668264,2041.0,431.0,133.0,0.0
668264,2031.0,431.0,133.0,0.0
668265,2038.0,431.0,133.0,0.0
668265,2045.0,431.0,133.0,0.0
668280,2070.0,431.0,133.0,0.0
668281,2067.0,431.0,133.0,0.0
668281,2066.0,431.0,133.0,0.0
668281,2074.0,431.0,133.0,0.0
668295,2060.0,431.0,133.0,0.0
668295,2062.0,431.0,133.0,0.0
668295,2084.0,431.0,133.0,0.0
668312,2039.0,432.0,133.0,0.0
668313,2043.0,432.0,133.0,0.0
668313,2056.0,432.0,133.0,0.0
668313,2047.0,432.0,133.0,0.0
668326,2036.0,432.0,133.0,0.0
668326,2030.0,432.0,133.0,0.0
668327,2035.0,432.0,133.0,0.0
668339,2063.0,432.0,133.0,0.0
668340,2061.0,432.0,133.0,0.0
668340,2064.0,432.0,133.0,0.0
668340,2067.0,432.0,133.0,0.0
668358,2071.0,433.0,133.0,0.0
668358,2079.0,433.0,133.0,0.0
668358,2075.0,433.0,133.0,0.0
668359,2068.0,433.0,133.0,0.0
668372,2054.0,434.0,133.0,0.0
668373,2038.0,434.0,133.0,0.0
668373,2038.0,434.0,133.0,0.0
668385,2043.0,434.0,133.0,0.0
668386,2036.0,434.0,133.0,0.0
668386,2035.0,434.0,133.0,0.0
668386,2042.0,434.0,133.0,0.0
668403,2062.0,434.0,133.0,0.0
668403,2056.0,434.0,133.0,0.0
668403,2049.0,434.0,133.0,0.0
668404,2054.0,434.0,133.0,0.0
668416,2061.0,435.0,133.0,0.0
668416,2064.0,435.0,133.0,0.0
668417,2048.0,435.0,133.0,0.0
668429,2021.0,435.0,133.0,0.0
668430,2029.0,435.0,133.0,0.0
668430,2028.0,435.0,133.0,0.0
668446,2042.0,436.0,133.0,0.0
668447,2041.0,436.0,133.0,0.0
668447,2037.0,436.0,133.0,0.0
668447,2040.0,436.0,133.0,0.0
668460,2061.0,436.0,133.0,0.0
668460,2065.0,436.0,133.0,0.0
668460,2058.0,436.0,133.0,0.0
668477,2068.0,437.0,133.0,0.0
668478,2076.0,437.0,133.0,0.0
668478,2075.0,437.0,133.0,0.0
668478,2070.0,437.0,133.0,0.0
668492,2027.0,437.0,133.0,0.0
668492,2026.0,437.0,133.0,0.0
668492,2034.0,437.0,133.0,0.0
668505,2040.0,437.0,133.0,0.0
668505,2042.0,437.0,133.0,0.0
668505,2041.0,437.0,133.0,0.0
668506,2026.0,437.0,133.0,0.0
668522,2052.0,438.0,133.0,0.0
668523,2060.0,438.0,133.0,0.0
668523,2056.0,438.0,133.0,0.0
668523,2056.0,438.0,133.0,0.0
668536,2055.0,438.0,133.0,0.0
668536,2058.0,438.0,133.0,0.0
668536,2064.0,438.0,133.0,0.0
668549,2036.0,438.0,133.0,0.0
668549,2038.0,438.0,133.0,0.0
668549,2040.0,438.0,133.0,0.0
668566,2045.0,439.0,133.0,0.0
668566,2042.0,439.0,133.0,0.0
668567,2042.0,439.0,133.0,0.0
668567,2043.0,439.0,133.0,0.0
668579,2067.0,440.0,133.0,0.0
668580,2059.0,440.0,133.0,0.0
668580,2055.0,440.0,133.0,0.0
668597,2065.0,440.0,133.0,0.0
668597,2070.0,440.0,133.0,0.0
668598,2072.0,440.0,133.0,0.0
668598,2052.0,440.0,133.0,0.0
668611,2029.0,440.0,133.0,0.0
668612,2033.0,440.0,133.0,0.0
668612,2034.0,440.0,133.0,0.0
668624,2049.0,440.0,133.0,0.0
668625,2044.0,440.0,133.0,0.0
668625,2041.0,440.0,133.0,0.0
668625,2042.0,440.0,133.0,0.0
668642,2063.0,440.0,133.0,0.0
668642,2058.0,440.0,133.0,0.0
668643,2068.0,440.0,133.0,0.0
668643,2068.0,440.0,133.0,0.0
668655,2048.0,440.0,133.0,0.0
668656,2054.0,440.0,133.0,0.0
668656,2056.0,440.0,133.0,0.0
668673,2038.0,440.0,133.0,0.0
668673,2050.0,440.0,133.0,0.0
668673,2042.0,440.0,133.0,0.0
668674,2050.0,440.0,133.0,0.0
668686,2040.0,440.0,133.0,0.0
668687,2038.0,440.0,133.0,0.0
668687,2041.0,440.0,133.0,0.0
668699,2070.0,440.0,133.0,0.0
668700,2067.0,440.0,133.0,0.0
668700,2065.0,440.0,133.0,0.0
668700,2070.0,440.0,133.0,0.0
668718,2078.0,440.0,133.0,0.0
668718,2070.0,440.0,133.0,0.0
668719,2072.0,440.0,133.0,0.0
668719,2073.0,440.0,133.0,0.0
668733,2046.0,441.0,133.0,0.0
668733,2047.0,441.0,133.0,0.0
668733,2050.0,441.0,133.0,0.0
668746,2042.0,441.0,133.0,0.0
668746,2034.0,441.0,133.0,0.0
668746,2030.0,441.0,133.0,0.0
668747,2035.0,441.0,133.0,0.0
668764,2067.0,441.0,133.0,0.0
668764,2052.0,441.0,133.0,0.0
668764,2067.0,441.0,133.0,0.0
668765,2069.0,441.0,133.0,0.0
668777,2053.0,440.0,133.0,0.0
668777,2051.0,440.0,133.0,0.0
668778,2051.0,440.0,133.0,0.0
668791,2025.0,440.0,133.0,0.0
668792,2045.0,440.0,133.0,0.0
668792,2038.0,440.0,133.0,0.0
668792,2037.0,440.0,133.0,0.0
668808,2045.0,440.0,133.0,0.0
668808,2041.0,440.0,133.0,0.0
668808,2035.0,440.0,133.0,0.0
668809,2035.0,440.0,133.0,0.0
668822,2043.0,441.0,133.0,0.0
668823,2049.0,441.0,133.0,0.0
668823,2045.0,441.0,133.0,0.0
668839,2074.0,441.0,133.0,0.0
668840,2068.0,441.0,133.0,0.0
668840,2067.0,441.0,133.0,0.0
668840,2069.0,441.0,133.0,0.0
668854,2033.0,440.0,133.0,0.0
668854,2047.0,440.0,133.0,0.0
668854,2045.0,440.0,133.0,0.0
668867,2054.0,440.0,133.0,0.0
668867,2055.0,440.0,133.0,0.0
668868,2058.0,440.0,133.0,0.0
668868,2048.0,440.0,133.0,0.0
668885,2047.0,440.0,133.0,0.0
668885,2040.0,440.0,133.0,0.0
668886,2037.0,440.0,133.0,0.0
668886,2030.0,440.0,133.0,0.0
668898,2063.0,440.0,133.0,0.0
668899,2058.0,440.0,133.0,0.0
668899,2063.0,440.0,133.0,0.0
668916,2053.0,440.0,133.0,0.0
668916,2063.0,440.0,133.0,0.0
668916,2058.0,440.0,133.0,0.0
668916,2068.0,440.0,133.0,0.0
668929,2028.0,440.0,133.0,0.0
668929,2032.0,440.0,133.0,0.0
668930,2028.0,440.0,133.0,0.0
668943,2044.0,439.0,133.0,0.0
668943,2042.0,439.0,133.0,0.0
668944,2053.0,439.0,133.0,0.0
668944,2056.0,439.0,133.0,0.0
668962,2062.0,439.0,133.0,0.0
668962,2060.0,439.0,133.0,0.0
668962,2053.0,439.0,133.0,0.0
668962,2059.0,439.0,133.0,0.0
668975,2050.0,439.0,133.0,0.0
668975,2058.0,439.0,133.0,0.0
668976,2054.0,439.0,133.0,0.0
668988,2027.0,439.0,133.0,0.0
668989,2014.0,439.0,133.0,0.0
668989,2036.0,439.0,133.0,0.0
668989,2054.0,439.0,151.5,0.0
669006,2039.0,439.0,151.5,0.0
669007,2038.0,439.0,151.5,0.0
669007,2039.0,439.0,151.5,0.0
669007,2049.0,439.0,151.5,0.0
669020,2056.0,439.0,151.5,0.0
669021,2056.0,439.0,151.5,0.0
669021,2056.0,439.0,151.5,0.0
669037,2085.0,439.0,151.5,0.0
669038,2073.0,439.0,151.5,0.0
669038,2072.0,439.0,151.5,0.0
669038,2082.0,439.0,151.5,0.0
669052,2025.0,439.0,151.5,0.0
669052,2024.0,439.0,151.5,0.0
669052,2023.0,439.0,151.5,0.0
669065,2038.0,439.0,151.5,0.0
669065,2070.0,439.0,151.5,0.0
669065,2045.0,439.0,151.5,0.0
669066,2057.0,439.0,151.5,0.0
669083,2058.0,439.0,151.5,0.0
669084,2048.0,439.0,151.5,0.0
669084,2052.0,439.0,151.5,0.0
669084,2063.0,439.0,151.5,0.0
669097,2070.0,438.0,151.5,0.0
669097,2066.0,438.0,151.5,0.0
669097,2051.0,438.0,151.5,0.0
669111,2012.0,439.0,151.5,0.0
669111,2039.0,439.0,151.5,0.0
669111,2025.0,439.0,151.5,0.0
669112,2031.0,439.0,151.5,0.0
669127,2033.0,439.0,151.5,0.0
669128,2031.0,439.0,151.5,0.0
669128,2036.0,439.0,151.5,0.0
669128,2029.0,439.0,151.5,0.0
669142,2054.0,439.0,151.5,0.0
669142,2052.0,439.0,151.5,0.0
669143,2056.0,439.0,151.5,0.0
669160,2068.0,439.0,151.5,0.0
669160,2059.0,439.0,151.5,0.0
669160,2066.0,439.0,151.5,0.0
669160,2059.0,439.0,151.5,0.0
669173,2073.0,439.0,151.5,0.0
669174,2055.0,439.0,151.5,0.0
669174,2072.0,439.0,151.5,0.0
669187,2043.0,438.0,151.5,0.0
669187,2032.0,438.0,151.5,0.0
669187,2023.0,438.0,151.5,0.0
669187,2035.0,438.0,151.5,0.0
669205,2047.0,439.0,151.5,0.0
669206,2034.0,439.0,151.5,0.0
669206,2032.0,439.0,151.5,0.0
669206,2039.0,439.0,151.5,0.0
669220,2066.0,439.0,151.5,0.0
669220,2062.0,439.0,151.5,0.0
669220,2055.0,439.0,151.5,0.0
669233,2039.0,439.0,151.5,0.0
669233,2036.0,439.0,151.5,0.0
669233,2041.0,439.0,151.5,0.0
669233,2040.0,439.0,151.5,0.0
669250,2048.0,439.0,151.5,0.0
669251,2030.0,439.0,151.5,0.0
669251,2035.0,439.0,151.5,0.0
669251,2023.0,439.0,151.5,0.0
669264,2048.0,439.0,151.5,0.0
669264,2044.0,439.0,151.5,0.0
669264,2056.0,439.0,151.5,0.0
669277,2063.0,439.0,151.5,0.0
669277,2060.0,439.0,151.5,0.0
669278,2064.0,439.0,151.5,0.0
669294,2044.0,439.0,151.5,0.0
669295,2056.0,439.0,151.5,0.0
669295,2059.0,439.0,151.5,0.0
669295,2050.0,439.0,151.5,0.0
669308,2027.0,439.0,151.5,0.0
669308,2027.0,439.0,151.5,0.0
669308,2027.0,439.0,151.5,0.0
669326,2057.0,438.0,151.5,0.0
669326,2053.0,438.0,151.5,0.0
669326,2041.0,438.0,151.5,0.0
669326,2024.0,438.0,151.5,0.0
669340,2066.0,438.0,151.5,0.0
669340,2069.0,438.0,151.5,0.0
669341,2068.0,438.0,151.5,0.0
669353,2035.0,438.0,151.5,0.0
669354,2042.0,438.0,151.5,0.0
669354,2039.0,438.0,151.5,0.0
669354,2026.0,438.0,151.5,0.0
669371,2010.0,437.0,151.5,0.0
669371,2040.0,437.0,151.5,0.0
669372,2040.0,437.0,151.5,0.0
669372,2031.0,437.0,151.5,0.0
669384,2042.0,437.0,151.5,0.0
669385,2032.0,437.0,151.5,0.0
669385,2047.0,437.0,151.5,0.0
669402,2069.0,437.0,151.5,0.0
669402,2064.0,437.0,151.5,0.0
669402,2064.0,437.0,151.5,0.0
669402,2054.0,437.0,151.5,0.0
669415,2041.0,437.0,151.5,0.0
669415,2047.0,437.0,151.5,0.0
669416,2056.0,437.0,151.5,0.0
669429,2025.0,437.0,151.5,0.0
669429,2034.0,437.0,151.5,0.0
669430,2030.0,437.0,151.5,0.0
669430,2022.0,437.0,151.5,0.0
669447,2043.0,436.0,151.5,0.0
669447,2036.0,436.0,151.5,0.0
669447,2038.0,436.0,151.5,0.0
669447,2041.0,436.0,151.5,0.0
669461,2063.0,436.0,151.5,0.0
669461,2059.0,436.0,151.5,0.0
669462,2055.0,436.0,151.5,0.0
669474,2013.0,436.0,151.5,0.0
669475,2008.0,436.0,151.5,0.0
669475,2004.0,436.0,151.5,0.0
669475,2039.0,436.0,151.5,0.0
669492,2030.0,435.0,151.5,0.0
669493,2040.0,435.0,151.5,0.0
669493,2042.0,435.0,151.5,0.0
669493,2040.0,435.0,151.5,0.0
669506,2028.0,435.0,151.5,0.0
669506,2034.0,435.0,151.5,0.0
669506,2030.0,435.0,151.5,0.0
669523,2058.0,434.0,151.5,0.0
669524,2055.0,434.0,151.5,0.0
669524,2049.0,434.0,151.5,0.0
669524,2051.0,434.0,151.5,0.0
669537,2061.0,434.0,151.5,0.0
669537,2062.0,434.0,151.5,0.0
669537,2053.0,434.0,151.5,0.0
669551,2023.0,433.0,151.5,0.0
669551,2021.0,433.0,151.5,0.0
669552,2026.0,433.0,151.5,0.0
669552,2040.0,433.0,151.5,0.0
669570,2035.0,433.0,151.5,0.0
669570,2031.0,433.0,151.5,0.0
669570,2032.0,433.0,151.5,0.0
669570,2032.0,433.0,151.5,0.0
669583,2053.0,432.0,151.5,0.0
669583,2044.0,432.0,151.5,0.0
669584,2051.0,432.0,151.5,0.0
669596,2058.0,432.0,151.5,0.0
669597,2058.0,432.0,151.5,0.0
669597,2067.0,432.0,151.5,0.0
669597,2060.0,432.0,151.5,0.0
669614,2065.0,432.0,151.5,0.0
669615,2047.0,432.0,151.5,0.0
669615,2072.0,432.0,151.5,0.0
669615,2060.0,432.0,151.5,0.0
669628,2032.0,431.0,151.5,0.0
669629,2027.0,431.0,151.5,0.0
669629,2027.0,431.0,151.5,0.0
669645,2056.0,431.0,151.5,0.0
669646,2055.0,431.0,151.5,0.0
669646,2043.0,431.0,151.5,0.0
669646,2046.0,431.0,151.5,0.0
669660,2062.0,431.0,151.5,0.0
669660,2061.0,431.0,151.5,0.0
669660,2061.0,431.0,151.5,0.0
669673,2028.0,431.0,151.5,0.0
669673,2031.0,431.0,151.5,0.0
669673,2033.0,431.0,151.5,0.0
669673,2050.0,431.0,151.5,0.0
669691,2021.0,430.0,151.5,0.0
669692,2015.0,430.0,151.5,0.0
669692,2036.0,430.0,151.5,0.0
669692,2029.0,430.0,151.5,0.0
669705,2047.0,430.0,151.5,0.0
669705,2042.0,430.0,151.5,0.0
669705,2043.0,430.0,151.5,0.0
669719,2062.0,430.0,152.3,0.0
669719,2067.0,430.0,152.3,0.0
669719,2069.0,430.0,152.3,0.0
669720,2065.0,430.0,152.3,0.0
669735,2052.0,430.0,152.3,0.0
669736,2060.0,430.0,152.3,0.0
669736,2050.0,430.0,152.3,0.0
669736,2054.0,430.0,152.3,0.0
669750,2024.0,430.0,152.3,0.0
669750,2026.0,430.0,152.3,0.0
669750,2024.0,430.0,152.3,0.0
669766,2034.0,430.0,152.3,0.0
669767,2031.0,430.0,152.3,0.0
669767,2037.0,430.0,152.3,0.0
669767,2039.0,430.0,152.3,0.0
669781,2054.0,430.0,152.3,0.0
669781,2022.0,430.0,152.3,0.0
669782,2033.0,430.0,152.3,0.0
669794,2053.0,429.0,152.3,0.0
669795,2054.0,429.0,152.3,0.0
669795,2057.0,429.0,152.3,0.0
669795,2054.0,429.0,152.3,0.0
669812,2039.0,430.0,152.3,0.0
669813,2032.0,430.0,152.3,0.0
669813,2036.0,430.0,152.3,0.0
669813,2041.0,430.0,152.3,0.0
669826,2044.0,430.0,152.3,0.0
669826,2037.0,430.0,152.3,0.0
669826,2040.0,430.0,152.3,0.0
669840,2067.0,430.0,152.3,0.0
669840,2052.0,430.0,152.3,0.0
669840,2058.0,430.0,152.3,0.0
669840,2067.0,430.0,152.3,0.0
669857,2062.0,430.0,152.3,0.0
669858,2067.0,430.0,152.3,0.0
669858,2066.0,430.0,152.3,0.0
669858,2064.0,430.0,152.3,0.0
669870,2023.0,429.0,152.3,0.0
669871,2027.0,429.0,152.3,0.0
669871,2030.0,429.0,152.3,0.0
669884,2044.0,429.0,152.3,0.0
669884,2063.0,429.0,152.3,0.0
669884,2055.0,429.0,152.3,0.0
669901,2070.0,429.0,152.3,0.0
669901,2067.0,429.0,152.3,0.0
669902,2065.0,429.0,152.3,0.0
669902,2055.0,429.0,152.3,0.0
669914,2039.0,429.0,152.3,0.0
669915,2053.0,429.0,152.3,0.0
669915,2040.0,429.0,152.3,0.0
669932,2021.0,429.0,152.3,0.0
669933,2035.0,429.0,152.3,0.0
669933,2029.0,429.0,152.3,0.0
669933,2039.0,429.0,152.3,0.0
669946,2045.0,429.0,152.3,0.0
669946,2039.0,429.0,152.3,0.0
669946,2036.0,429.0,152.3,0.0
669960,2067.0,428.0,152.3,0.0
669960,2071.0,428.0,152.3,0.0
669960,2047.0,428.0,152.3,0.0
669961,2061.0,428.0,152.3,0.0
669977,2058.0,428.0,152.3,0.0
669978,2068.0,428.0,152.3,0.0
669978,2060.0,428.0,152.3,0.0
669978,2069.0,428.0,152.3,0.0
669991,2035.0,428.0,152.3,0.0
669991,2022.0,428.0,152.3,0.0
669991,2030.0,428.0,152.3,0.0
670008,2021.0,429.0,152.3,0.0
670008,2035.0,429.0,152.3,0.0
670009,2030.0,429.0,152.3,0.0
670009,2037.0,429.0,152.3,0.0
670021,2056.0,429.0,172.4,0.0
670022,2045.0,429.0,172.4,0.0
670022,2060.0,429.0,172.4,0.0
670034,2041.0,429.0,172.4,0.0
670035,2036.0,429.0,172.4,0.0
670035,2044.0,429.0,172.4,0.0
670053,2036.0,429.0,172.4,0.0
670053,2040.0,429.0,172.4,0.0
670053,2035.0,429.0,172.4,0.0
670054,2040.0,429.0,172.4,0.0
670067,2026.0,429.0,172.4,0.0
670068,2040.0,429.0,172.4,0.0
670068,2034.0,429.0,172.4,0.0
670080,2063.0,429.0,172.4,0.0
670081,2065.0,429.0,172.4,0.0
670081,2066.0,429.0,172.4,0.0
670081,2065.0,429.0,172.4,0.0
670098,2066.0,429.0,172.4,0.0
670099,2063.0,429.0,172.4,0.0
670099,2066.0,429.0,172.4,0.0
670099,2058.0,429.0,172.4,0.0
670112,2024.0,429.0,172.4,0.0
670112,2030.0,429.0,172.4,0.0
670112,2039.0,429.0,172.4,0.0
670129,2026.0,429.0,172.4,0.0
670129,2034.0,429.0,172.4,0.0
670130,2032.0,429.0,172.4,0.0
670130,2037.0,429.0,172.4,0.0
670142,2029.0,429.0,172.4,0.0
670143,2051.0,429.0,172.4,0.0
670143,2060.0,429.0,172.4,0.0
670157,2046.0,429.0,172.4,0.0
670157,2059.0,429.0,172.4,0.0
670157,2059.0,429.0,172.4,0.0
670157,2051.0,429.0,172.4,0.0
670174,2038.0,429.0,172.4,0.0
670175,2044.0,429.0,172.4,0.0
670175,2047.0,429.0,172.4,0.0
670175,2052.0,429.0,172.4,0.0
670188,2034.0,429.0,172.4,0.0
670189,2027.0,429.0,172.4,0.0
670190,2033.0,429.0,172.4,0.0
670202,2066.0,429.0,172.4,0.0
670203,2058.0,429.0,172.4,0.0
670203,2059.0,429.0,172.4,0.0
670203,2063.0,429.0,172.4,0.0
670220,2071.0,429.0,172.4,0.0
670220,2072.0,429.0,172.4,0.0
670221,2066.0,429.0,172.4,0.0
670221,2067.0,429.0,172.4,0.0
670233,2037.0,429.0,172.4,0.0
670234,2006.0,429.0,172.4,0.0
670234,2034.0,429.0,172.4,0.0
670248,2062.0,429.0,172.4,0.0
670248,2049.0,429.0,172.4,0.0
670248,2057.0,429.0,172.4,0.0
670249,2050.0,429.0,172.4,0.0
670264,2054.0,429.0,172.4,0.0
670265,2040.0,429.0,172.4,0.0
670265,2039.0,429.0,172.4,0.0
670265,2043.0,429.0,172.4,0.0
670279,2055.0,429.0,172.4,0.0
670279,2045.0,429.0,172.4,0.0
670279,2054.0,429.0,172.4,0.0
670297,2043.0,429.0,172.4,0.0
670297,2069.0,429.0,172.4,0.0
670297,2073.0,429.0,172.4,0.0
670297,2054.0,429.0,172.4,0.0
670310,2026.0,429.0,172.4,0.0
670310,2034.0,429.0,172.4,0.0
670311,2026.0,429.0,172.4,0.0
670323,2060.0,429.0,172.4,0.0
670324,2053.0,429.0,172.4,0.0
670324,2051.0,429.0,172.4,0.0
670324,2051.0,429.0,172.4,0.0
670341,2073.0,430.0,172.4,0.0
670341,2074.0,430.0,172.4,0.0
670341,2065.0,430.0,172.4,0.0
670342,2061.0,430.0,172.4,0.0
670354,2027.0,430.0,172.4,0.0
670355,2027.0,430.0,172.4,0.0
670355,2037.0,430.0,172.4,0.0
670372,2024.0,429.0,172.4,0.0
670372,2033.0,429.0,172.4,0.0
670373,2029.0,429.0,172.4,0.0
670373,2031.0,429.0,172.4,0.0
670386,2045.0,430.0,172.4,0.0
670387,2050.0,430.0,172.4,0.0
670387,2038.0,430.0,172.4,0.0
670400,2063.0,430.0,167.6,0.0
670400,2063.0,430.0,167.6,0.0
670400,2057.0,430.0,167.6,0.0
670400,2053.0,430.0,167.6,0.0
670418,2060.0,430.0,167.6,0.0
670419,2067.0,430.0,167.6,0.0
670419,2060.0,430.0,167.6,0.0
670419,2069.0,430.0,167.6,0.0
670432,2032.0,430.0,167.6,0.0
670432,2037.0,430.0,167.6,0.0
670432,2025.0,430.0,167.6,0.0
670446,2069.0,430.0,167.6,0.0
670446,2037.0,430.0,167.6,0.0
670446,2041.0,430.0,167.6,0.0
670447,2043.0,430.0,167.6,0.0
670463,2072.0,430.0,167.6,0.0
670463,2057.0,430.0,167.6,0.0
670463,2066.0,430.0,167.6,0.0
670463,2066.0,430.0,167.6,0.0
670477,2047.0,429.0,167.6,0.0
670477,2056.0,429.0,167.6,0.0
670477,2053.0,429.0,167.6,0.0
670493,2028.0,429.0,167.6,0.0
670494,2037.0,429.0,167.6,0.0
670494,2037.0,429.0,167.6,0.0
670494,2037.0,429.0,167.6,0.0
670508,2036.0,430.0,167.6,0.0
670508,2032.0,430.0,167.6,0.0
670508,2035.0,430.0,167.6,0.0
670521,2073.0,430.0,167.6,0.0
670521,2060.0,430.0,167.6,0.0
670521,2064.0,430.0,167.6,0.0
670521,2065.0,430.0,167.6,0.0
670539,2071.0,430.0,167.6,0.0
670540,2070.0,430.0,167.6,0.0
670540,2069.0,430.0,167.6,0.0
670540,2072.0,430.0,167.6,0.0
670553,2034.0,430.0,167.6,0.0
670553,2031.0,430.0,167.6,0.0
670553,2038.0,430.0,167.6,0.0
670567,2041.0,430.0,167.6,0.0
670567,2038.0,430.0,167.6,0.0
670567,2040.0,430.0,167.6,0.0
670568,2042.0,430.0,167.6,0.0
670583,2068.0,430.0,167.6,0.0
670584,2059.0,430.0,167.6,0.0
670584,2056.0,430.0,167.6,0.0
670584,2061.0,430.0,167.6,0.0
670598,2049.0,430.0,167.6,0.0
670598,2066.0,430.0,167.6,0.0
670598,2041.0,430.0,167.6,0.0
670615,2041.0,431.0,167.6,0.0
670615,2053.0,431.0,167.6,0.0
670616,2054.0,431.0,167.6,0.0
670616,2053.0,431.0,167.6,0.0
670628,2026.0,431.0,167.6,0.0
670629,2035.0,431.0,167.6,0.0
670629,2040.0,431.0,167.6,0.0
670642,2070.0,431.0,167.6,0.0
670642,2060.0,431.0,167.6,0.0
670642,2068.0,431.0,167.6,0.0
670660,2068.0,431.0,167.6,0.0
670660,2084.0,431.0,167.6,0.0
670661,2070.0,431.0,167.6,0.0
670661,2070.0,431.0,167.6,0.0
670674,2051.0,431.0,167.6,0.0
670675,2057.0,431.0,167.6,0.0
670675,2042.0,431.0,167.6,0.0
670687,2039.0,432.0,167.6,0.0
670688,2025.0,432.0,167.6,0.0
670688,2037.0,432.0,167.6,0.0
670688,2036.0,432.0,167.6,0.0
670705,2055.0,432.0,167.6,0.0
670705,2058.0,432.0,167.6,0.0
670706,2045.0,432.0,167.6,0.0
670706,2040.0,432.0,167.6,0.0
670718,2065.0,432.0,172.3,0.0
670719,2066.0,432.0,172.3,0.0
670719,2066.0,432.0,172.3,0.0
670732,2028.0,433.0,172.3,0.0
670732,2024.0,433.0,172.3,0.0
670732,2030.0,433.0,172.3,0.0
670733,2033.0,433.0,172.3,0.0
670750,2037.0,433.0,172.3,0.0
670750,2047.0,433.0,172.3,0.0
670750,2039.0,433.0,172.3,0.0
670750,2040.0,433.0,172.3,0.0
670764,2059.0,434.0,172.3,0.0
670765,2051.0,434.0,172.3,0.0
670765,2059.0,434.0,172.3,0.0
670781,2064.0,434.0,172.3,0.0
670782,2070.0,434.0,172.3,0.0
670782,2065.0,434.0,172.3,0.0
670782,2069.0,434.0,172.3,0.0
670796,2041.0,434.0,172.3,0.0
670796,2054.0,434.0,172.3,0.0
670796,2053.0,434.0,172.3,0.0
670809,2030.0,435.0,172.3,0.0
670809,2032.0,435.0,172.3,0.0
670810,2053.0,435.0,172.3,0.0
670810,2040.0,435.0,172.3,0.0
670826,2053.0,435.0,172.3,0.0
670827,2043.0,435.0,172.3,0.0
670827,2044.0,435.0,172.3,0.0
670827,2048.0,435.0,172.3,0.0
670840,2075.0,435.0,172.3,0.0
670840,2066.0,435.0,172.3,0.0
670840,2062.0,435.0,172.3,0.0
670854,2041.0,436.0,172.3,0.0
670854,2048.0,436.0,172.3,0.0
670854,2040.0,436.0,172.3,0.0
670855,2044.0,436.0,172.3,0.0
670870,2035.0,436.0,172.3,0.0
670871,2050.0,436.0,172.3,0.0
670871,2036.0,436.0,172.3,0.0
670871,2033.0,436.0,172.3,0.0
670885,2081.0,436.0,172.3,0.0
670885,2050.0,436.0,172.3,0.0
670885,2054.0,436.0,172.3,0.0
670901,2073.0,437.0,172.3,0.0
670902,2071.0,437.0,172.3,0.0
670902,2055.0,437.0,172.3,0.0
670902,2071.0,437.0,172.3,0.0
670915,2044.0,437.0,172.3,0.0
670916,2049.0,437.0,172.3,0.0
670916,2047.0,437.0,172.3,0.0
670929,2032.0,437.0,172.3,0.0
670929,2047.0,437.0,172.3,0.0
670929,2042.0,437.0,172.3,0.0
670930,2032.0,437.0,172.3,0.0
670946,2054.0,437.0,172.3,0.0
670947,2054.0,437.0,172.3,0.0
670947,2042.0,437.0,172.3,0.0
670947,2044.0,437.0,172.3,0.0
670960,2061.0,437.0,172.3,0.0
670960,2065.0,437.0,172.3,0.0
670960,2074.0,437.0,172.3,0.0
670974,2034.0,437.0,172.3,0.0
670974,2040.0,437.0,172.3,0.0
670974,2042.0,437.0,172.3,0.0
670974,2038.0,437.0,172.3,0.0
670990,2042.0,437.0,172.3,0.0
670991,2026.0,437.0,172.3,0.0
670991,2039.0,437.0,172.3,0.0
670991,2038.0,437.0,172.3,0.0
671004,2052.0,438.0,172.3,0.0
671005,2049.0,438.0,172.3,0.0
671005,2052.0,438.0,172.3,0.0
671021,2076.0,438.0,172.3,0.0
671021,2074.0,438.0,172.3,0.0
671022,2072.0,438.0,172.3,0.0
671022,2070.0,438.0,172.3,0.0
671035,2042.0,438.0,172.3,0.0
671036,2047.0,438.0,172.3,0.0
671036,2048.0,438.0,172.3,0.0
671049,2042.0,438.0,172.3,0.0
671049,2047.0,438.0,172.3,0.0
671049,2042.0,438.0,172.3,0.0
671049,2041.0,438.0,172.3,0.0
671066,2055.0,438.0,172.3,0.0
671067,2043.0,438.0,172.3,0.0
671067,2052.0,438.0,172.3,0.0
671067,2050.0,438.0,172.3,0.0
671080,2069.0,438.0,172.3,0.0
671080,2073.0,438.0,172.3,0.0
671080,2067.0,438.0,172.3,0.0
671094,2033.0,438.0,172.3,0.0
671094,2041.0,438.0,172.3,0.0
671094,2040.0,438.0,172.3,0.0
671094,2041.0,438.0,172.3,0.0
671110,2036.0,438.0,172.3,0.0
671111,2037.0,438.0,172.3,0.0
671111,2039.0,438.0,172.3,0.0
671111,2037.0,438.0,172.3,0.0
671124,2057.0,437.0,172.3,0.0
671125,2056.0,437.0,172.3,0.0
671125,2059.0,437.0,170.7,0.0
671141,2085.0,437.0,170.7,0.0
671142,2072.0,437.0,170.7,0.0
671142,2072.0,437.0,170.7,0.0
671142,2067.0,437.0,170.7,0.0
671156,2040.0,437.0,170.7,0.0
671156,2051.0,437.0,170.7,0.0
671156,2051.0,437.0,170.7,0.0
671169,2041.0,437.0,170.7,0.0
671169,2036.0,437.0,170.7,0.0
671169,2041.0,437.0,170.7,0.0
671170,2050.0,437.0,170.7,0.0
671186,2056.0,437.0,170.7,0.0
671187,2051.0,437.0,170.7,0.0
671187,2070.0,437.0,170.7,0.0
671187,2044.0,437.0,170.7,0.0
671200,2061.0,437.0,170.7,0.0
671200,2070.0,437.0,170.7,0.0
671200,2061.0,437.0,170.7,0.0
671214,2034.0,437.0,170.7,0.0
671214,2011.0,437.0,170.7,0.0
671215,2042.0,437.0,170.7,0.0
671215,2041.0,437.0,170.7,0.0
671231,2041.0,437.0,170.7,0.0
671231,2041.0,437.0,170.7,0.0
671231,2039.0,437.0,170.7,0.0
671231,2039.0,437.0,170.7,0.0
671245,2052.0,437.0,170.7,0.0
671245,2049.0,437.0,170.7,0.0
671246,2045.0,437.0,170.7,0.0
671262,2073.0,437.0,170.7,0.0
671263,2068.0,437.0,170.7,0.0
671263,2069.0,437.0,170.7,0.0
671263,2060.0,437.0,170.7,0.0
671276,2043.0,437.0,170.7,0.0
671276,2055.0,437.0,170.7,0.0
671276,2058.0,437.0,170.7,0.0
671289,2048.0,437.0,170.7,0.0
671289,2036.0,437.0,170.7,0.0
671290,2040.0,437.0,170.7,0.0
671306,2054.0,437.0,170.7,0.0
671307,2051.0,437.0,170.7,0.0
671307,2044.0,437.0,170.7,0.0
671307,2045.0,437.0,170.7,0.0
671320,2063.0,437.0,170.7,0.0
671320,2068.0,437.0,170.7,0.0
671320,2066.0,437.0,170.7,0.0
671334,2023.0,437.0,170.7,0.0
671334,2038.0,437.0,170.7,0.0
671334,2037.0,437.0,170.7,0.0
671335,2038.0,437.0,170.7,0.0
671350,2037.0,437.0,170.7,0.0
671351,2044.0,437.0,170.7,0.0
671351,2038.0,437.0,170.7,0.0
671351,2034.0,437.0,170.7,0.0
671365,2056.0,437.0,170.7,0.0
671365,2055.0,437.0,170.7,0.0
671365,2053.0,437.0,170.7,0.0
671382,2068.0,437.0,170.7,0.0
671382,2067.0,437.0,170.7,0.0
671383,2090.0,437.0,170.7,0.0
671383,2064.0,437.0,170.7,0.0
671395,2045.0,437.0,170.7,0.0
671396,2055.0,437.0,170.7,0.0
671396,2049.0,437.0,170.7,0.0
671409,2037.0,437.0,170.7,0.0
671409,2036.0,437.0,170.7,0.0
671409,2040.0,437.0,170.7,0.0
671426,2070.0,438.0,170.7,0.0
671426,2056.0,438.0,170.7,0.0
671427,2057.0,438.0,170.7,0.0
671427,2055.0,438.0,170.7,0.0
671439,2063.0,438.0,170.7,0.0
671440,2061.0,438.0,170.7,0.0
671440,2066.0,438.0,170.7,0.0
671453,2034.0,438.0,170.7,0.0
671454,2040.0,438.0,170.7,0.0
671454,2029.0,438.0,170.7,0.0
671454,2034.0,438.0,170.7,0.0
671470,2038.0,438.0,170.7,0.0
671470,2036.0,438.0,170.7,0.0
671470,2040.0,438.0,170.7,0.0
671471,2034.0,438.0,170.7,0.0
671484,2053.0,438.0,170.7,0.0
671485,2051.0,438.0,170.7,0.0
671485,2052.0,438.0,170.7,0.0
671502,2070.0,437.0,162.1,0.0
671502,2071.0,437.0,162.1,0.0
671502,2069.0,437.0,162.1,0.0
671502,2070.0,437.0,162.1,0.0
671515,2043.0,437.0,162.1,0.0
671515,2060.0,437.0,162.1,0.0
671516,2046.0,437.0,162.1,0.0
671528,2041.0,437.0,162.1,0.0
671529,2034.0,437.0,162.1,0.0
671529,2029.0,437.0,162.1,0.0
671529,2037.0,437.0,162.1,0.0
671546,2055.0,438.0,162.1,0.0
671546,2050.0,438.0,162.1,0.0
671547,2055.0,438.0,162.1,0.0
671547,2053.0,438.0,162.1,0.0
671559,2062.0,438.0,162.1,0.0
671560,2066.0,438.0,162.1,0.0
671560,2058.0,438.0,162.1,0.0
671577,2059.0,438.0,162.1,0.0
671578,2064.0,438.0,162.1,0.0
671578,2062.0,438.0,162.1,0.0
671578,2059.0,438.0,162.1,0.0
671592,2027.0,438.0,162.1,0.0
671592,2028.0,438.0,162.1,0.0
671593,2026.0,438.0,162.1,0.0
671605,2054.0,438.0,162.1,0.0
671606,2051.0,438.0,162.1,0.0
671606,2045.0,438.0,162.1,0.0
671606,2055.0,438.0,162.1,0.0
671624,2059.0,438.0,162.1,0.0
671625,1998.0,438.0,162.1,0.0
671625,1988.0,438.0,162.1,0.0
671625,2024.0,438.0,162.1,0.0
671638,2049.0,438.0,162.1,0.0
671639,2050.0,438.0,162.1,0.0
671639,2056.0,438.0,162.1,0.0
671652,2036.0,438.0,162.1,0.0
671653,2029.0,438.0,162.1,0.0
671653,2024.0,438.0,162.1,0.0
671653,2033.0,438.0,162.1,0.0
671669,2033.0,438.0,162.1,0.0
671669,2042.0,438.0,162.1,0.0
671670,2039.0,438.0,162.1,0.0
671670,2037.0,438.0,162.1,0.0
671683,2064.0,437.0,162.1,0.0
671684,2107.0,437.0,162.1,0.0
671684,2057.0,437.0,162.1,0.0
671701,2068.0,437.0,162.1,0.0
671701,2062.0,437.0,162.1,0.0
671702,2064.0,437.0,162.1,0.0
671702,2055.0,437.0,162.1,0.0
671715,1996.0,437.0,162.1,0.0
671715,2039.0,437.0,162.1,0.0
671715,2042.0,437.0,162.1,0.0
671728,2030.0,437.0,162.1,0.0
671729,2031.0,437.0,162.1,0.0
671729,2039.0,437.0,162.1,0.0
671729,2031.0,437.0,162.1,0.0
671747,2053.0,436.0,162.1,0.0
671747,2052.0,436.0,162.1,0.0
671747,2055.0,436.0,162.1,0.0
671748,2055.0,436.0,162.1,0.0
671761,2069.0,435.0,162.1,0.0
671762,2027.0,435.0,162.1,0.0
671762,2057.0,435.0,162.1,0.0
671774,2027.0,435.0,162.1,0.0
671775,2039.0,435.0,162.1,0.0
671775,2045.0,435.0,162.1,0.0
671775,2034.0,435.0,162.1,0.0
671792,2033.0,435.0,162.1,0.0
671792,2032.0,435.0,162.1,0.0
671793,2031.0,435.0,162.1,0.0
671793,2037.0,435.0,162.1,0.0
671805,2051.0,435.0,162.1,0.0
671806,2044.0,435.0,162.1,0.0
671806,2052.0,435.0,162.1,0.0
671823,2065.0,434.0,162.1,0.0
671823,2064.0,434.0,162.1,0.0
671823,2064.0,434.0,162.1,0.0
671823,2061.0,434.0,162.1,0.0
671836,2050.0,434.0,162.1,0.0
671837,2056.0,434.0,162.1,0.0
671837,2058.0,434.0,162.1,0.0
671850,2034.0,434.0,162.1,0.0
671851,2033.0,434.0,162.1,0.0
671851,2037.0,434.0,162.1,0.0
671851,2037.0,434.0,162.1,0.0
671868,2043.0,433.0,162.1,0.0
671869,2031.0,433.0,162.1,0.0
671869,2058.0,433.0,162.1,0.0
671869,2058.0,433.0,162.1,0.0
671883,2069.0,433.0,162.1,0.0
671883,2060.0,433.0,162.1,0.0
671883,2053.0,433.0,162.1,0.0
671896,2041.0,433.0,162.1,0.0
671896,2037.0,433.0,162.1,0.0
671896,2053.0,433.0,162.1,0.0
671897,2047.0,433.0,162.1,0.0
671914,2035.0,432.0,162.1,0.0
671914,2031.0,432.0,162.1,0.0
671914,2038.0,432.0,162.1,0.0
671914,2037.0,432.0,162.1,0.0
671927,2058.0,432.0,162.1,0.0
671927,2043.0,432.0,162.1,0.0
671928,2044.0,432.0,162.1,0.0
671941,2086.0,432.0,162.1,0.0
671941,2068.0,432.0,162.1,0.0
671942,2070.0,432.0,162.1,0.0
671942,2072.0,432.0,162.1,0.0
671958,2057.0,432.0,162.1,0.0
671958,2054.0,432.0,162.1,0.0
671958,2058.0,432.0,162.1,0.0
671958,2060.0,432.0,162.1,0.0
671972,2040.0,432.0,162.1,0.0
671972,2033.0,432.0,162.1,0.0
671972,2029.0,432.0,162.1,0.0
671990,2027.0,431.0,162.1,0.0
671991,2032.0,431.0,162.1,0.0
671991,2025.0,431.0,162.1,0.0
671991,2031.0,431.0,162.1,0.0
672004,2052.0,431.0,162.1,0.0
672004,2051.0,431.0,162.1,0.0
672004,2053.0,431.0,162.1,0.0
672018,2011.0,431.0,162.1,0.0
672018,2055.0,431.0,162.1,0.0
672018,2053.0,431.0,162.1,0.0
672019,2059.0,431.0,162.1,0.0
672035,2052.0,431.0,162.1,0.0
672036,2048.0,431.0,162.1,0.0
672036,2044.0,431.0,162.1,0.0
672036,2049.0,431.0,162.1,0.0
672050,2031.0,430.0,162.1,0.0
672050,2033.0,430.0,162.1,0.0
672050,2028.0,430.0,162.1,0.0
672066,2056.0,430.0,162.1,0.0
672066,2058.0,430.0,162.1,0.0
672067,2051.0,430.0,162.1,0.0
672067,2053.0,430.0,162.1,0.0
672080,2060.0,430.0,162.1,0.0
672081,2065.0,430.0,142.7,0.0
672081,2062.0,430.0,142.7,0.0
672094,2028.0,430.0,142.7,0.0
672094,2036.0,430.0,142.7,0.0
672094,2031.0,430.0,142.7,0.0
672094,2007.0,430.0,142.7,0.0
672112,2034.0,430.0,142.7,0.0
672113,2035.0,430.0,142.7,0.0
672113,2028.0,430.0,142.7,0.0
672113,2041.0,430.0,142.7,0.0
672125,2053.0,430.0,142.7,0.0
672126,2049.0,430.0,142.7,0.0
672126,2059.0,430.0,142.7,0.0
672140,2062.0,429.0,142.7,0.0
672140,2065.0,429.0,142.7,0.0
672140,2061.0,429.0,142.7,0.0
672141,2057.0,429.0,142.7,0.0
672157,2049.0,429.0,142.7,0.0
672157,2028.0,429.0,142.7,0.0
672157,2059.0,429.0,142.7,0.0
672157,2056.0,429.0,142.7,0.0
672171,2008.0,429.0,142.7,0.0
672172,2014.0,429.0,142.7,0.0
672172,2026.0,429.0,142.7,0.0
672188,2055.0,429.0,142.7,0.0
672188,2042.0,429.0,142.7,0.0
672188,2040.0,429.0,142.7,0.0
672188,2044.0,429.0,142.7,0.0
672202,2064.0,428.0,142.7,0.0
672202,2053.0,428.0,142.7,0.0
672203,2059.0,428.0,142.7,0.0
672215,2036.0,428.0,142.7,0.0
672216,2039.0,428.0,142.7,0.0
672216,2053.0,428.0,142.7,0.0
672216,2053.0,428.0,142.7,0.0
672234,2035.0,428.0,142.7,0.0
672234,2037.0,428.0,142.7,0.0
672234,2038.0,428.0,142.7,0.0
672235,2043.0,428.0,142.7,0.0
672247,2049.0,428.0,142.7,0.0
672248,2044.0,428.0,142.7,0.0
672248,2052.0,428.0,142.7,0.0
672261,2064.0,429.0,142.7,0.0
672262,2076.0,429.0,142.7,0.0
672262,2066.0,429.0,142.7,0.0
672262,2066.0,429.0,142.7,0.0
672279,2066.0,429.0,142.7,0.0
672279,2071.0,429.0,142.7,0.0
672279,2076.0,429.0,142.7,0.0
672280,2068.0,429.0,142.7,0.0
672292,2025.0,429.0,142.7,0.0
672293,2027.0,429.0,142.7,0.0
672293,2031.0,429.0,142.7,0.0
672310,2038.0,429.0,142.7,0.0
672310,2037.0,429.0,142.7,0.0
672310,2037.0,429.0,142.7,0.0
672311,2035.0,429.0,142.7,0.0
672323,2070.0,429.0,142.7,0.0
672324,2065.0,429.0,142.7,0.0
672324,2057.0,429.0,142.7,0.0
672337,2039.0,429.0,142.7,0.0
672337,2048.0,429.0,142.7,0.0
672337,2046.0,429.0,142.7,0.0
672337,2043.0,429.0,142.7,0.0
672355,2037.0,429.0,142.7,0.0
672355,2056.0,429.0,142.7,0.0
672356,2046.0,429.0,142.7,0.0
672356,2041.0,429.0,142.7,0.0
672369,2032.0,430.0,142.7,0.0
672370,2033.0,430.0,142.7,0.0
672370,2028.0,430.0,142.7,0.0
672383,2073.0,430.0,142.7,0.0
672383,2062.0,430.0,142.7,0.0
672383,2067.0,430.0,142.7,0.0
672383,2071.0,430.0,142.7,0.0
672400,2067.0,430.0,142.7,0.0
672400,2067.0,430.0,142.7,0.0
672401,2061.0,430.0,142.7,0.0
672401,2067.0,430.0,142.7,0.0
672413,2029.0,430.0,142.7,0.0
672414,2045.0,430.0,142.7,0.0
672414,2043.0,430.0,142.7,0.0
672427,2058.0,430.0,142.7,0.0
672427,2047.0,430.0,142.7,0.0
672427,2042.0,430.0,142.7,0.0
672428,2073.0,430.0,142.7,0.0
672445,1937.0,429.0,142.7,0.0
672445,2071.0,429.0,139.0,0.0
672446,2070.0,429.0,139.0,0.0
672446,2071.0,429.0,139.0,0.0
672459,2047.0,429.0,139.0,0.0
672460,2058.0,429.0,139.0,0.0
672460,2052.0,429.0,139.0,0.0
672476,2039.0,429.0,139.0,0.0
672477,2052.0,429.0,139.0,0.0
672477,2059.0,429.0,139.0,0.0
672477,2063.0,429.0,139.0,0.0
672491,2008.0,430.0,139.0,0.0
672491,2028.0,430.0,139.0,0.0
672491,2031.0,430.0,139.0,0.0
672504,2073.0,430.0,139.0,0.0
672504,2072.0,430.0,139.0,0.0
672504,2059.0,430.0,139.0,0.0
672505,2052.0,430.0,139.0,0.0
672521,2064.0,430.0,139.0,0.0
672522,2065.0,430.0,139.0,0.0
672522,2076.0,430.0,139.0,0.0
672522,2063.0,430.0,139.0,0.0
672535,2066.0,430.0,139.0,0.0
672535,2027.0,430.0,139.0,0.0
672535,2028.0,430.0,139.0,0.0
672549,2043.0,431.0,139.0,0.0
672549,2039.0,431.0,139.0,0.0
672550,2037.0,431.0,139.0,0.0
672550,2032.0,431.0,139.0,0.0
672565,2062.0,431.0,139.0,0.0
672566,2052.0,431.0,139.0,0.0
672566,2083.0,431.0,139.0,0.0
672566,2056.0,431.0,139.0,0.0
672580,2068.0,431.0,139.0,0.0
672580,2066.0,431.0,139.0,0.0
672580,2062.0,431.0,139.0,0.0
672598,2049.0,431.0,139.0,0.0
672598,2048.0,431.0,139.0,0.0
672598,2057.0,431.0,139.0,0.0
672598,2057.0,431.0,139.0,0.0
672611,2037.0,431.0,139.0,0.0
672612,2023.0,431.0,139.0,0.0
672612,2025.0,431.0,139.0,0.0
672625,2065.0,431.0,139.0,0.0
672625,2058.0,431.0,139.0,0.0
672625,2060.0,431.0,139.0,0.0
672626,2063.0,431.0,139.0,0.0
672642,2028.0,431.0,139.0,0.0
672643,2059.0,431.0,139.0,0.0
672643,2051.0,431.0,139.0,0.0
672643,2070.0,431.0,139.0,0.0
672656,2038.0,431.0,139.0,0.0
672656,2038.0,431.0,139.0,0.0
672656,2031.0,431.0,139.0,0.0
672670,2033.0,431.0,139.0,0.0
672670,2032.0,431.0,139.0,0.0
672671,2031.0,431.0,139.0,0.0
672671,2035.0,431.0,139.0,0.0
672688,2050.0,431.0,139.0,0.0
672688,2048.0,431.0,139.0,0.0
672688,2051.0,431.0,139.0,0.0
672688,2045.0,431.0,139.0,0.0
672701,2056.0,431.0,139.0,0.0
672701,2058.0,431.0,139.0,0.0
672702,2064.0,431.0,139.0,0.0
672718,2060.0,431.0,139.0,0.0
672719,2064.0,431.0,139.0,0.0
672719,2059.0,431.0,139.0,0.0
672719,2063.0,431.0,139.0,0.0
672732,2026.0,431.0,139.0,0.0
672733,2026.0,431.0,139.0,0.0
672733,2041.0,431.0,139.0,0.0
672745,2060.0,431.0,139.0,0.0
672746,2050.0,431.0,139.0,0.0
672746,2056.0,431.0,139.0,0.0
672746,2058.0,431.0,139.0,0.0
672763,2095.0,432.0,139.0,0.0
672764,2088.0,432.0,139.0,0.0
672764,2101.0,432.0,139.0,0.0
672764,2084.0,432.0,139.0,0.0
672778,2040.0,432.0,139.0,0.0
672778,2049.0,432.0,139.0,0.0
672778,2045.0,432.0,139.0,0.0
672794,2031.0,432.0,139.0,0.0
672795,2028.0,432.0,139.0,0.0
672795,2031.0,432.0,139.0,0.0
672795,2030.0,432.0,139.0,0.0
672808,2039.0,432.0,139.0,0.0
672809,2034.0,432.0,139.0,0.0
672809,2033.0,432.0,139.0,0.0
672822,2072.0,432.0,139.0,0.0
672822,2073.0,432.0,139.0,0.0
672822,2065.0,432.0,139.0,0.0
672822,2063.0,432.0,139.0,0.0
672840,2061.0,433.0,139.0,0.0
672841,2068.0,433.0,139.0,0.0
672841,2070.0,433.0,139.0,0.0
672841,2066.0,433.0,139.0,0.0
672854,2026.0,433.0,139.0,0.0
672854,2028.0,433.0,139.0,0.0
672854,2035.0,433.0,139.0,0.0
672868,2045.0,433.0,139.0,0.0
672868,2039.0,433.0,139.0,0.0
672868,2038.0,433.0,139.0,0.0
672868,2041.0,433.0,139.0,0.0
672884,2074.0,433.0,139.0,0.0
672885,2065.0,433.0,139.0,0.0
672885,2065.0,433.0,139.0,0.0
672885,2062.0,433.0,139.0,0.0
672899,2046.0,433.0,139.0,0.0
672899,2057.0,433.0,139.0,0.0
672899,2063.0,433.0,139.0,0.0
672915,2031.0,434.0,139.0,0.0
672916,2035.0,434.0,139.0,0.0
672916,2045.0,434.0,139.0,0.0
672916,2038.0,434.0,139.0,0.0
672930,2053.0,434.0,139.0,0.0
672930,2043.0,434.0,139.0,0.0
672930,2046.0,434.0,139.0,0.0
672943,2064.0,434.0,139.0,0.0
672943,2061.0,434.0,139.0,0.0
672944,2059.0,434.0,139.0,0.0
672944,2063.0,434.0,139.0,0.0
672962,2070.0,434.0,139.0,0.0
672962,2077.0,434.0,139.0,0.0
672962,2075.0,434.0,139.0,0.0
672963,2065.0,434.0,139.0,0.0
672976,2051.0,434.0,139.0,0.0
672976,2035.0,434.0,139.0,0.0
672977,2036.0,434.0,139.0,0.0
672989,2039.0,434.0,139.0,0.0
672990,2036.0,434.0,139.0,0.0
672990,2042.0,434.0,139.0,0.0
672990,2038.0,434.0,139.0,0.0
673007,2057.0,435.0,139.0,0.0
673007,2052.0,435.0,139.0,0.0
673007,2049.0,435.0,139.0,0.0
673007,2042.0,435.0,139.0,0.0
673020,2055.0,435.0,139.0,0.0
673020,2058.0,435.0,139.0,0.0
673021,2054.0,435.0,139.0,0.0
673033,2039.0,435.0,139.0,0.0
673034,2030.0,435.0,139.0,0.0
673034,2029.0,435.0,139.0,0.0
673051,2039.0,436.0,139.0,0.0
673051,2035.0,436.0,139.0,0.0
673051,2039.0,436.0,139.0,0.0
673052,2042.0,436.0,139.0,0.0
673064,2028.0,437.0,139.0,0.0
673065,2024.0,437.0,139.0,0.0
673065,2025.0,437.0,139.0,0.0
673082,2049.0,438.0,139.0,0.0
673083,2055.0,438.0,139.0,0.0
673083,2060.0,438.0,139.0,0.0
673083,2053.0,438.0,139.0,0.0
673097,2048.0,438.0,139.0,0.0
673097,2037.0,438.0,139.0,0.0
673097,2052.0,438.0,139.0,0.0
673110,2047.0,438.0,139.0,0.0
673111,2052.0,438.0,139.0,0.0
673111,2035.0,438.0,139.0,0.0
673111,2032.0,438.0,139.0,0.0
673128,2050.0,439.0,139.0,0.0
673128,2045.0,439.0,139.0,0.0
673129,2050.0,439.0,139.0,0.0
673129,2050.0,439.0,139.0,0.0
673141,2064.0,439.0,139.0,0.0
673142,2060.0,439.0,139.0,0.0
673142,2060.0,439.0,139.0,0.0
673159,2055.0,439.0,139.0,0.0
673160,2057.0,439.0,139.0,0.0
673160,2057.0,439.0,139.0,0.0
673160,2060.0,439.0,139.0,0.0
673173,2026.0,440.0,139.0,0.0
673174,2055.0,440.0,139.0,0.0
673174,2027.0,440.0,139.0,0.0
673187,2051.0,440.0,139.0,0.0
673188,2053.0,440.0,139.0,0.0
673188,2046.0,440.0,139.0,0.0
673188,2047.0,440.0,139.0,0.0
673206,2061.0,440.0,139.0,0.0
673207,2058.0,440.0,139.0,0.0
673207,2055.0,440.0,139.0,0.0
673207,2061.0,440.0,139.0,0.0
673220,2056.0,440.0,139.0,0.0
673220,2057.0,440.0,139.0,0.0
673220,2052.0,440.0,139.0,0.0
673233,2028.0,440.0,139.0,0.0
673233,2027.0,440.0,139.0,0.0
673234,2030.0,440.0,139.0,0.0
673234,2028.0,440.0,139.0,0.0
673250,2032.0,441.0,139.0,0.0
673251,2033.0,441.0,139.0,0.0
673252,2029.0,441.0,139.0,0.0
673252,2031.0,441.0,139.0,0.0
673265,2056.0,441.0,139.0,0.0
673266,2055.0,441.0,139.0,0.0
673266,2052.0,441.0,139.0,0.0
673282,2068.0,441.0,139.0,0.0
673283,2071.0,441.0,139.0,0.0
673283,2068.0,441.0,139.0,0.0
673283,2067.0,441.0,139.0,0.0
673297,2034.0,441.0,139.0,0.0
673297,2039.0,441.0,139.0,0.0
673297,2043.0,441.0,139.0,0.0
673310,2042.0,441.0,139.0,0.0
673310,2030.0,441.0,139.0,0.0
673310,2035.0,441.0,139.0,0.0
673311,2033.0,441.0,139.0,0.0
673328,2047.0,441.0,139.0,0.0
673329,2042.0,441.0,139.0,0.0
673329,2042.0,441.0,139.0,0.0
673329,2042.0,441.0,139.0,0.0
673342,2070.0,441.0,139.0,0.0
673342,2076.0,441.0,139.0,0.0
673342,2064.0,441.0,139.0,0.0
673356,2024.0,441.0,139.0,0.0
673357,2036.0,441.0,139.0,0.0
673357,2047.0,441.0,139.0,0.0
673357,2037.0,441.0,139.0,0.0
673373,2026.0,441.0,139.0,0.0
673374,2020.0,441.0,139.0,0.0
673374,2027.0,441.0,139.0,0.0
673374,2028.0,441.0,139.0,0.0
673388,2057.0,440.0,139.0,0.0
673388,2038.0,440.0,139.0,0.0
673388,2039.0,440.0,139.0,0.0
673405,2072.0,440.0,139.0,0.0
673406,2054.0,440.0,139.0,0.0
673406,2063.0,440.0,139.0,0.0
673406,2065.0,440.0,139.0,0.0
673419,2057.0,440.0,139.0,0.0
673419,2056.0,440.0,139.0,0.0
673419,2055.0,440.0,139.0,0.0
673432,2035.0,440.0,139.0,0.0
673432,2025.0,440.0,139.0,0.0
673432,2022.0,440.0,139.0,0.0
673433,2033.0,440.0,139.0,0.0
673450,2046.0,441.0,139.0,0.0
673451,2048.0,441.0,139.0,0.0
673451,2038.0,441.0,139.0,0.0
673451,2039.0,441.0,139.0,0.0
673465,2067.0,441.0,139.0,0.0
673465,2056.0,441.0,139.0,0.0
673465,2059.0,441.0,139.0,0.0
673478,2049.0,441.0,139.0,0.0
673478,2056.0,441.0,139.0,0.0
673478,2054.0,441.0,139.0,0.0
673479,2050.0,441.0,139.0,0.0
673496,2047.0,440.0,139.0,0.0
673496,2037.0,440.0,139.0,0.0
673496,2039.0,440.0,139.0,0.0
673496,2036.0,440.0,139.0,0.0
673509,2042.0,440.0,139.0,0.0
673509,2035.0,440.0,139.0,0.0
673510,2037.0,440.0,139.0,0.0
673522,2073.0,440.0,139.0,0.0
673523,2062.0,440.0,139.0,0.0
673523,2064.0,440.0,139.0,0.0
673539,2053.0,440.0,139.0,0.0
673540,2056.0,440.0,139.0,0.0
673540,2072.0,440.0,139.0,0.0
673540,2073.0,440.0,139.0,0.0
673553,2031.0,440.0,139.0,0.0
673553,2034.0,440.0,139.0,0.0
673553,2028.0,440.0,139.0,0.0
673570,2040.0,440.0,139.0,0.0
673571,2041.0,440.0,139.0,0.0
673571,2044.0,440.0,139.0,0.0
673571,2043.0,440.0,139.0,0.0
673585,2060.0,439.0,139.0,0.0
673585,2056.0,439.0,139.0,0.0
673585,2061.0,439.0,139.0,0.0
673598,2054.0,439.0,139.0,0.0
673599,2043.0,439.0,139.0,0.0
673599,2031.0,439.0,139.0,0.0
673599,2056.0,439.0,139.0,0.0
673616,2026.0,439.0,139.0,0.0
673616,2039.0,439.0,139.0,0.0
673616,2039.0,439.0,139.0,0.0
673617,2047.0,439.0,139.0,0.0
673629,2040.0,439.0,139.0,0.0
673630,2032.0,439.0,139.0,0.0
673630,2051.0,439.0,139.0,0.0
673647,2059.0,439.0,139.0,0.0
673647,2056.0,439.0,139.0,0.0
673647,2054.0,439.0,139.0,0.0
673647,2053.0,439.0,139.0,0.0
673660,2053.0,439.0,139.0,0.0
673660,2061.0,439.0,139.0,0.0
673661,2071.0,439.0,139.0,0.0
673674,2020.0,439.0,139.0,0.0
673675,2024.0,439.0,139.0,0.0
673675,2027.0,439.0,139.0,0.0
673675,2025.0,439.0,139.0,0.0
673692,2034.0,439.0,139.0,0.0
673693,2035.0,439.0,139.0,0.0
673693,2035.0,439.0,139.0,0.0
673693,2030.0,439.0,139.0,0.0
673706,2054.0,439.0,139.0,0.0
673707,2055.0,439.0,139.0,0.0
673707,2053.0,439.0,139.0,0.0
673720,2070.0,439.0,139.0,0.0
673720,2066.0,439.0,139.0,0.0
673720,2058.0,439.0,139.0,0.0
673720,2072.0,439.0,139.0,0.0
673737,2045.0,438.0,139.0,0.0
673738,2055.0,438.0,139.0,0.0
673738,2054.0,438.0,139.0,0.0
673738,2052.0,438.0,139.0,0.0
673750,2048.0,438.0,139.0,0.0
673751,2036.0,438.0,139.0,0.0
673751,2046.0,438.0,139.0,0.0
673764,2069.0,439.0,139.0,0.0
673765,2067.0,439.0,139.0,0.0
673765,2069.0,439.0,139.0,0.0
673765,2062.0,439.0,139.0,0.0
673781,2078.0,439.0,139.0,0.0
673781,2069.0,439.0,139.0,0.0
673782,2063.0,439.0,139.0,0.0
673782,2069.0,439.0,139.0,0.0
673795,2029.0,438.0,139.0,0.0
673796,2036.0,438.0,139.0,0.0
673796,2033.0,438.0,139.0,0.0
673812,2036.0,438.0,139.0,0.0
673812,2028.0,438.0,139.0,0.0
673813,2039.0,438.0,139.0,0.0
673813,2016.0,438.0,139.0,0.0
673826,2024.0,438.0,139.0,0.0
673827,2053.0,438.0,139.0,0.0
673827,2059.0,438.0,139.0,0.0
673839,2072.0,437.0,139.0,0.0
673840,2059.0,437.0,139.0,0.0
673840,2072.0,437.0,139.0,0.0
673840,2058.0,437.0,139.0,0.0
673857,2021.0,437.0,139.0,0.0
673857,2048.0,437.0,139.0,0.0
673858,2048.0,437.0,139.0,0.0
673858,2044.0,437.0,139.0,0.0
673870,2040.0,437.0,139.0,0.0
673871,2038.0,437.0,139.0,0.0
673871,2030.0,437.0,139.0,0.0
673888,2059.0,438.0,139.0,0.0
673888,2055.0,438.0,139.0,0.0
673888,2050.0,438.0,139.0,0.0
673888,2052.0,438.0,139.0,0.0
673901,2064.0,438.0,139.0,0.0
673901,2061.0,438.0,139.0,0.0
673902,2053.0,438.0,139.0,0.0
673915,2035.0,438.0,139.0,0.0
673916,2036.0,438.0,139.0,0.0
673916,2039.0,438.0,139.0,0.0
673916,2036.0,438.0,139.0,0.0
673934,2028.0,438.0,139.0,0.0
673934,2033.0,438.0,139.0,0.0
673934,2031.0,438.0,139.0,0.0
673934,2029.0,438.0,139.0,0.0
673947,2057.0,437.0,139.0,0.0
673948,2053.0,437.0,139.0,0.0
673948,2037.0,437.0,139.0,0.0
673960,2074.0,437.0,139.0,0.0
673961,2063.0,437.0,139.0,0.0
673961,2060.0,437.0,139.0,0.0
673961,2060.0,437.0,139.0,0.0
673978,2052.0,436.0,139.0,0.0
673979,2039.0,436.0,139.0,0.0
673979,2047.0,436.0,139.0,0.0
673979,2010.0,436.0,139.0,0.0
673993,2032.0,436.0,139.0,0.0
673993,2013.0,436.0,139.0,0.0
673994,2025.0,436.0,139.0,0.0
674010,2054.0,436.0,139.0,0.0
674010,2040.0,436.0,139.0,0.0
674010,2039.0,436.0,139.0,0.0
674010,2039.0,436.0,139.0,0.0
674024,2059.0,436.0,139.0,0.0
674024,2059.0,436.0,139.0,0.0
674025,2067.0,436.0,139.0,0.0
674037,2036.0,436.0,139.0,0.0
674038,2036.0,436.0,139.0,0.0
674038,2041.0,436.0,139.0,0.0
674038,2034.0,436.0,139.0,0.0
674056,2028.0,436.0,139.0,0.0
674056,2034.0,436.0,139.0,0.0
674056,2042.0,436.0,139.0,0.0
674056,2037.0,436.0,139.0,0.0
674069,2036.0,436.0,139.0,0.0
674069,2053.0,436.0,139.0,0.0
674070,2042.0,436.0,139.0,0.0
674083,2073.0,436.0,139.0,0.0
674084,2065.0,436.0,139.0,0.0
674084,2088.0,436.0,139.0,0.0
674084,2058.0,436.0,139.0,0.0
674100,2061.0,435.0,139.0,0.0
674100,2061.0,435.0,139.0,0.0
674100,2059.0,435.0,139.0,0.0
674101,2052.0,435.0,139.0,0.0
674114,2028.0,434.0,139.0,0.0
674114,2026.0,434.0,139.0,0.0
674115,2030.0,434.0,139.0,0.0
674130,2040.0,434.0,139.0,0.0
674131,2041.0,434.0,139.0,0.0
674131,2045.0,434.0,139.0,0.0
674131,2045.0,434.0,139.0,0.0
674145,2039.0,434.0,139.0,0.0
674145,2057.0,434.0,139.0,0.0
674145,2055.0,434.0,139.0,0.0
674158,2058.0,433.0,139.0,0.0
674158,2058.0,433.0,139.0,0.0
674158,2056.0,433.0,139.0,0.0
674159,2049.0,433.0,139.0,0.0
674176,2033.0,433.0,139.0,0.0
674177,2054.0,433.0,139.0,0.0
674177,2045.0,433.0,139.0,0.0
674177,2044.0,433.0,139.0,0.0
674190,2036.0,433.0,139.0,0.0
674190,2036.0,433.0,139.0,0.0
674190,2036.0,433.0,139.0,0.0
674204,2066.0,432.0,139.0,0.0
674204,2061.0,432.0,139.0,0.0
674205,2064.0,432.0,139.0,0.0
674205,2063.0,432.0,139.0,0.0
674220,2056.0,432.0,139.0,0.0
674221,2077.0,432.0,139.0,0.0
674221,2064.0,432.0,139.0,0.0
674221,2065.0,432.0,139.0,0.0
674235,2028.0,431.0,139.0,0.0
674235,2027.0,431.0,139.0,0.0
674235,2022.0,431.0,139.0,0.0
674252,2039.0,431.0,139.0,0.0
674252,2041.0,431.0,139.0,0.0
674253,2043.0,431.0,139.0,0.0
674253,2046.0,431.0,139.0,0.0
674265,2052.0,430.0,139.0,0.0
674266,2057.0,430.0,139.0,0.0
674266,2055.0,430.0,139.0,0.0
674279,2058.0,430.0,139.0,0.0
674279,2056.0,430.0,139.0,0.0
674279,2054.0,430.0,139.0,0.0
674297,2035.0,431.0,139.0,0.0
674297,2043.0,431.0,139.0,0.0
674298,2084.0,431.0,139.0,0.0
674298,2047.0,431.0,139.0,0.0
674310,2042.0,430.0,139.0,0.0
674311,2035.0,430.0,139.0,0.0
674311,2032.0,430.0,139.0,0.0
674324,2084.0,430.0,139.0,0.0
674325,2066.0,430.0,139.0,0.0
674325,2068.0,430.0,139.0,0.0
674325,2072.0,430.0,139.0,0.0
674342,2065.0,429.0,139.0,0.0
674342,2067.0,429.0,139.0,0.0
674343,2083.0,429.0,139.0,0.0
674343,2074.0,429.0,139.0,0.0
674355,2029.0,429.0,139.0,0.0
674356,2014.0,429.0,139.0,0.0
674356,2031.0,429.0,139.0,0.0
674373,2036.0,429.0,139.0,0.0
674373,2040.0,429.0,139.0,0.0
674373,2037.0,429.0,139.0,0.0
674374,2038.0,429.0,139.0,0.0
674386,2058.0,429.0,159.6,0.0
674387,2051.0,429.0,159.6,0.0
674387,2073.0,429.0,159.6,0.0
674400,2059.0,429.0,159.6,0.0
674401,2071.0,429.0,159.6,0.0
674402,2073.0,429.0,159.6,0.0
674403,2074.0,429.0,159.6,0.0
674420,2044.0,428.0,159.6,0.0
674420,2047.0,428.0,159.6,0.0
674420,2054.0,428.0,159.6,0.0
674421,2050.0,428.0,159.6,0.0
674434,2026.0,428.0,159.6,0.0
674435,2036.0,428.0,159.6,0.0
674435,2032.0,428.0,159.6,0.0
674447,2054.0,428.0,159.6,0.0
674448,2041.0,428.0,159.6,0.0
674448,2050.0,428.0,159.6,0.0
674448,2059.0,428.0,159.6,0.0
674465,2068.0,428.0,159.6,0.0
674466,2065.0,428.0,159.6,0.0
674466,2064.0,428.0,159.6,0.0
674466,2065.0,428.0,159.6,0.0
674478,2045.0,428.0,159.6,0.0
674479,2041.0,428.0,159.6,0.0
674479,2050.0,428.0,159.6,0.0
674493,2034.0,427.0,159.6,0.0
674493,2035.0,427.0,159.6,0.0
674493,2040.0,427.0,159.6,0.0
674494,2033.0,427.0,159.6,0.0
674510,2050.0,427.0,159.6,0.0
674510,2047.0,427.0,159.6,0.0
674510,2043.0,427.0,159.6,0.0
674510,2053.0,427.0,159.6,0.0
674524,2058.0,427.0,159.6,0.0
674524,2058.0,427.0,159.6,0.0
674525,2051.0,427.0,159.6,0.0
674542,2070.0,427.0,159.6,0.0
674543,2077.0,427.0,159.6,0.0
674543,2076.0,427.0,159.6,0.0
674543,2073.0,427.0,159.6,0.0
674556,2003.0,427.0,159.6,0.0
674556,2024.0,427.0,159.6,0.0
674556,2020.0,427.0,159.6,0.0
674569,2053.0,427.0,159.6,0.0
674569,2043.0,427.0,159.6,0.0
674569,2044.0,427.0,159.6,0.0
674570,2044.0,427.0,159.6,0.0
674586,2043.0,427.0,159.6,0.0
674587,2058.0,427.0,159.6,0.0
674587,2080.0,427.0,159.6,0.0
674587,2057.0,427.0,159.6,0.0
674601,2062.0,427.0,159.6,0.0
674601,2057.0,427.0,159.6,0.0
674601,2054.0,427.0,159.6,0.0
674617,2036.0,427.0,159.6,0.0
674618,2044.0,427.0,159.6,0.0
674618,2042.0,427.0,159.6,0.0
674618,2041.0,427.0,159.6,0.0
674631,2029.0,427.0,159.6,0.0
674632,2021.0,427.0,159.6,0.0
674632,2038.0,427.0,159.6,0.0
674645,2067.0,427.0,159.6,0.0
674645,2060.0,427.0,159.6,0.0
674645,2064.0,427.0,159.6,0.0
674645,2058.0,427.0,159.6,0.0
674663,2068.0,427.0,159.6,0.0
674664,2059.0,427.0,159.6,0.0
674664,2068.0,427.0,159.6,0.0
674664,2084.0,427.0,159.6,0.0
674677,2039.0,427.0,159.6,0.0
674677,2025.0,427.0,159.6,0.0
674677,2039.0,427.0,159.6,0.0
674691,2035.0,428.0,159.6,0.0
674691,2033.0,428.0,159.6,0.0
674691,2023.0,428.0,159.6,0.0
674692,2030.0,428.0,159.6,0.0
674708,2073.0,428.0,171.9,0.0
674708,2063.0,428.0,171.9,0.0
674708,2042.0,428.0,171.9,0.0
674709,2068.0,428.0,171.9,0.0
674722,2067.0,427.0,171.9,0.0
674723,2057.0,427.0,171.9,0.0
674723,2060.0,427.0,171.9,0.0
674739,2051.0,427.0,171.9,0.0
674739,2047.0,427.0,171.9,0.0
674739,2052.0,427.0,171.9,0.0
674739,2048.0,427.0,171.9,0.0
674753,2048.0,427.0,171.9,0.0
674753,2020.0,427.0,171.9,0.0
674753,2027.0,427.0,171.9,0.0
674766,2061.0,427.0,171.9,0.0
674766,2054.0,427.0,171.9,0.0
674767,2049.0,427.0,171.9,0.0
674767,2063.0,427.0,171.9,0.0
674785,2071.0,427.0,171.9,0.0
674785,2060.0,427.0,171.9,0.0
674785,2058.0,427.0,171.9,0.0
674786,2073.0,427.0,171.9,0.0
674798,2035.0,427.0,171.9,0.0
674799,2042.0,427.0,171.9,0.0
674799,2072.0,427.0,171.9,0.0
674812,2032.0,428.0,171.9,0.0
674813,2005.0,428.0,171.9,0.0
674813,2035.0,428.0,171.9,0.0
674813,2034.0,428.0,171.9,0.0
674830,2041.0,428.0,171.9,0.0
674830,2039.0,428.0,171.9,0.0
674831,2040.0,428.0,171.9,0.0
674831,2042.0,428.0,171.9,0.0
674843,2061.0,428.0,171.9,0.0
674844,2058.0,428.0,171.9,0.0
674844,2066.0,428.0,171.9,0.0
674861,2070.0,428.0,171.9,0.0
674861,2079.0,428.0,171.9,0.0
674862,2086.0,428.0,171.9,0.0
674862,2080.0,428.0,171.9,0.0
674874,2023.0,428.0,171.9,0.0
674875,2024.0,428.0,171.9,0.0
674875,2016.0,428.0,171.9,0.0
674888,2054.0,428.0,171.9,0.0
674888,2039.0,428.0,171.9,0.0
674888,2037.0,428.0,171.9,0.0
674889,2059.0,428.0,171.9,0.0
674906,2072.0,428.0,171.9,0.0
674907,2047.0,428.0,171.9,0.0
674907,2053.0,428.0,171.9,0.0
674907,2044.0,428.0,171.9,0.0
674921,2060.0,429.0,171.9,0.0
674921,2061.0,429.0,171.9,0.0
674921,2057.0,429.0,171.9,0.0
674934,2032.0,429.0,171.9,0.0
674934,2033.0,429.0,171.9,0.0
674934,2017.0,429.0,171.9,0.0
674935,2028.0,429.0,171.9,0.0
674951,2048.0,429.0,171.9,0.0
674952,2049.0,429.0,171.9,0.0
674952,2047.0,429.0,171.9,0.0
674952,2057.0,429.0,171.9,0.0
674965,2072.0,429.0,171.9,0.0
674965,2068.0,429.0,171.9,0.0
674965,2058.0,429.0,171.9,0.0
674979,2052.0,429.0,171.9,0.0
674979,2081.0,429.0,171.9,0.0
674980,2055.0,429.0,171.9,0.0
674980,2054.0,429.0,171.9,0.0
674996,2023.0,429.0,171.9,0.0
674996,2039.0,429.0,171.9,0.0
674996,1896.0,429.0,171.9,0.0
674996,2026.0,429.0,171.9,0.0
675010,2058.0,429.0,171.9,0.0
675011,2059.0,429.0,171.9,0.0
675011,2072.0,429.0,171.9,0.0
675027,2062.0,429.0,171.9,0.0
675027,2051.0,429.0,171.9,0.0
675027,2036.0,429.0,171.9,0.0
675028,2038.0,429.0,171.9,0.0
675041,2057.0,429.0,171.9,0.0
675042,2068.0,429.0,171.9,0.0
675042,2061.0,429.0,171.9,0.0
675054,2021.0,429.0,171.9,0.0
675055,2030.0,429.0,171.9,0.0
675055,2031.0,429.0,171.9,0.0
675055,2039.0,429.0,171.9,0.0
675072,2043.0,429.0,171.9,0.0
675072,2032.0,429.0,171.9,0.0
675072,2029.0,429.0,171.9,0.0
675073,2043.0,429.0,171.9,0.0
675085,2050.0,430.0,171.9,0.0
675086,2083.0,430.0,171.9,0.0
675086,2052.0,430.0,171.9,0.0
675103,2066.0,430.0,171.9,0.0
675103,2073.0,430.0,171.9,0.0
675103,2062.0,430.0,171.9,0.0
675104,2070.0,430.0,171.9,0.0
675116,2021.0,430.0,171.9,0.0
675117,2023.0,430.0,171.9,0.0
675117,2029.0,430.0,171.9,0.0
675130,2041.0,430.0,171.9,0.0
675131,2039.0,430.0,171.9,0.0
675131,2034.0,430.0,171.9,0.0
675131,2039.0,430.0,171.9,0.0
675149,2055.0,430.0,171.9,0.0
675150,2056.0,430.0,171.9,0.0
675150,2048.0,430.0,171.9,0.0
675150,2048.0,430.0,171.9,0.0
675163,2060.0,430.0,171.9,0.0
675163,2074.0,430.0,171.9,0.0
675163,2092.0,430.0,171.9,0.0
675176,2010.0,431.0,171.9,0.0
675176,2023.0,431.0,171.9,0.0
675177,2021.0,431.0,171.9,0.0
675177,2022.0,431.0,171.9,0.0
675194,2009.0,431.0,171.9,0.0
675194,2028.0,431.0,171.9,0.0
675194,2037.0,431.0,171.9,0.0
675194,2011.0,431.0,171.9,0.0
675207,2066.0,431.0,171.9,0.0
675207,2053.0,431.0,171.9,0.0
675208,2052.0,431.0,171.9,0.0
675221,2056.0,430.0,171.9,0.0
675222,2066.0,430.0,171.9,0.0
675222,2059.0,430.0,171.9,0.0
675222,2065.0,430.0,171.9,0.0
675239,2044.0,431.0,171.9,0.0
675239,2046.0,431.0,171.9,0.0
675240,2037.0,431.0,171.9,0.0
675240,2065.0,431.0,171.9,0.0
675252,2038.0,431.0,171.9,0.0
675253,2033.0,431.0,171.9,0.0
675253,2036.0,431.0,171.9,0.0
675270,2056.0,431.0,171.9,0.0
675270,2042.0,431.0,171.9,0.0
675271,2049.0,431.0,171.9,0.0
675271,2046.0,431.0,171.9,0.0
675283,2067.0,431.0,171.9,0.0
675284,2050.0,431.0,171.9,0.0
675284,2066.0,431.0,171.9,0.0
675297,2090.0,432.0,171.9,0.0
675297,2028.0,432.0,171.9,0.0
675297,2001.0,432.0,171.9,0.0
675297,2029.0,432.0,171.9,0.0
675315,2024.0,432.0,171.9,0.0
675315,2040.0,432.0,171.9,0.0
675315,2036.0,432.0,171.9,0.0
675315,2035.0,432.0,171.9,0.0
675329,2043.0,432.0,171.9,0.0
675329,2033.0,432.0,171.9,0.0
675330,2034.0,432.0,171.9,0.0
675345,2071.0,433.0,171.9,0.0
675346,2071.0,433.0,171.9,0.0
675346,2069.0,433.0,171.9,0.0
675346,2063.0,433.0,171.9,0.0
675360,2040.0,433.0,171.9,0.0
675360,2041.0,433.0,171.9,0.0
675360,2048.0,433.0,171.9,0.0
675373,2035.0,433.0,171.9,0.0
675373,2030.0,433.0,171.9,0.0
675373,2027.0,433.0,171.9,0.0
675374,2039.0,433.0,171.9,0.0
675391,2042.0,434.0,171.9,0.0
675392,2034.0,434.0,171.9,0.0
675392,2022.0,434.0,171.9,0.0
675392,2036.0,434.0,171.9,0.0
675405,2066.0,434.0,171.9,0.0
675405,2067.0,434.0,171.9,0.0
675405,2056.0,434.0,171.9,0.0
675419,2038.0,435.0,171.9,0.0
675419,2041.0,435.0,171.9,0.0
675420,2046.0,435.0,171.9,0.0
675420,2050.0,435.0,171.9,0.0
675436,2034.0,435.0,171.9,0.0
675436,2027.0,435.0,171.9,0.0
675436,2028.0,435.0,171.9,0.0
675437,2033.0,435.0,171.9,0.0
675450,2044.0,436.0,171.9,0.0
675451,2036.0,436.0,171.9,0.0
675451,2037.0,436.0,171.9,0.0
675468,2060.0,436.0,171.9,0.0
675469,2072.0,436.0,171.9,0.0
675469,2058.0,436.0,171.9,0.0
675469,2060.0,436.0,171.9,0.0
675482,2057.0,436.0,171.9,0.0
675482,2052.0,436.0,171.9,0.0
675482,2056.0,436.0,171.9,0.0
675495,2024.0,437.0,171.9,0.0
675495,2026.0,437.0,171.9,0.0
675496,2034.0,437.0,171.9,0.0
675513,2052.0,437.0,171.9,0.0
675514,2041.0,437.0,171.9,0.0
675514,2039.0,437.0,171.9,0.0
675514,2041.0,437.0,171.9,0.0
675528,2055.0,437.0,171.9,0.0
675528,2052.0,437.0,171.9,0.0
675528,2052.0,437.0,171.9,0.0
675541,2061.0,437.0,171.9,0.0
675541,2057.0,437.0,171.9,0.0
675541,2058.0,437.0,171.9,0.0
675542,2049.0,437.0,171.9,0.0
675558,2034.0,437.0,171.9,0.0
675559,2041.0,437.0,171.9,0.0
675559,2047.0,437.0,171.9,0.0
675559,2045.0,437.0,171.9,0.0
675572,2030.0,437.0,171.9,0.0
675572,2035.0,437.0,171.9,0.0
675572,2026.0,437.0,171.9,0.0
675585,2061.0,437.0,171.9,0.0
675585,2065.0,437.0,171.9,0.0
675586,2065.0,437.0,171.9,0.0
675586,2056.0,437.0,171.9,0.0
675603,2067.0,437.0,171.9,0.0
675603,2069.0,437.0,171.9,0.0
675603,2059.0,437.0,171.9,0.0
675604,2060.0,437.0,171.9,0.0
675617,2033.0,437.0,171.9,0.0
675618,2040.0,437.0,171.9,0.0
675618,2054.0,437.0,171.9,0.0
675634,2042.0,437.0,171.9,0.0
675634,2022.0,437.0,171.9,0.0
675635,2043.0,437.0,171.9,0.0
675635,2022.0,437.0,171.9,0.0
675648,2052.0,437.0,171.9,0.0
675649,2042.0,437.0,171.9,0.0
675649,2049.0,437.0,171.9,0.0
675661,2059.0,437.0,171.9,0.0
675662,2062.0,437.0,171.9,0.0
675662,2056.0,437.0,171.9,0.0
675662,2063.0,437.0,171.9,0.0
675679,2043.0,437.0,171.9,0.0
675679,2046.0,437.0,171.9,0.0
675680,2066.0,437.0,171.9,0.0
675680,2040.0,437.0,171.9,0.0
675692,2035.0,437.0,171.9,0.0
675693,2042.0,437.0,171.9,0.0
675693,2035.0,437.0,171.9,0.0
675710,2057.0,437.0,171.9,0.0
675710,2051.0,437.0,171.9,0.0
675710,2049.0,437.0,171.9,0.0
675711,2051.0,437.0,171.9,0.0
675723,2061.0,437.0,171.9,0.0
675724,2067.0,437.0,171.9,0.0
675724,2059.0,437.0,171.9,0.0
675737,2034.0,437.0,171.9,0.0
675738,2042.0,437.0,171.9,0.0
675738,2037.0,437.0,171.9,0.0
675738,2040.0,437.0,171.9,0.0
675755,2027.0,437.0,171.9,0.0
675756,2025.0,437.0,171.9,0.0
675756,2027.0,437.0,171.9,0.0
675756,2025.0,437.0,171.9,0.0
675769,2024.0,437.0,171.9,0.0
675770,2035.0,437.0,171.9,0.0
675770,2039.0,437.0,171.9,0.0
675783,2051.0,437.0,171.9,0.0
675783,2073.0,437.0,171.9,0.0
675784,2050.0,437.0,171.9,0.0
675784,2063.0,437.0,171.9,0.0
675801,2053.0,437.0,171.9,0.0
675801,2067.0,437.0,171.9,0.0
675801,2058.0,437.0,171.9,0.0
675801,2054.0,437.0,171.9,0.0
675814,2027.0,437.0,171.9,0.0
675814,2030.0,437.0,171.9,0.0
675815,2030.0,437.0,171.9,0.0
675828,2059.0,437.0,171.9,0.0
675829,2056.0,437.0,171.9,0.0
675829,2056.0,437.0,171.9,0.0
675829,2061.0,437.0,171.9,0.0
675845,2060.0,437.0,171.9,0.0
675845,2064.0,437.0,171.9,0.0
675845,2063.0,437.0,171.9,0.0
675846,2060.0,437.0,171.9,0.0
675859,2039.0,436.0,171.9,0.0
675859,2043.0,436.0,171.9,0.0
675860,2041.0,436.0,171.9,0.0
675877,2031.0,436.0,171.9,0.0
675877,2029.0,436.0,171.9,0.0
675877,2037.0,436.0,171.9,0.0
675877,2025.0,436.0,171.9,0.0
675890,2040.0,436.0,171.9,0.0
675891,2041.0,436.0,171.9,0.0
675891,2040.0,436.0,171.9,0.0
675903,2066.0,436.0,171.9,0.0
675904,2063.0,436.0,171.9,0.0
675904,2064.0,436.0,171.9,0.0
675904,2063.0,436.0,171.9,0.0
675922,2060.0,435.0,171.9,0.0
675922,2061.0,435.0,171.9,0.0
675923,2066.0,435.0,171.9,0.0
675923,2058.0,435.0,171.9,0.0
675936,1996.0,435.0,171.9,0.0
675937,2022.0,435.0,171.9,0.0
675937,2028.0,435.0,171.9,0.0
675953,2037.0,435.0,171.9,0.0
675953,2032.0,435.0,171.9,0.0
675953,2035.0,435.0,171.9,0.0
675953,2037.0,435.0,171.9,0.0
675967,2069.0,435.0,171.9,0.0
675967,2059.0,435.0,171.9,0.0
675968,2052.0,435.0,171.9,0.0
675980,2044.0,435.0,171.9,0.0
675981,2078.0,435.0,171.9,0.0
675981,2027.0,435.0,171.9,0.0
675981,2052.0,435.0,171.9,0.0
675999,2036.0,435.0,171.9,0.0
675999,2069.0,435.0,171.9,0.0
676000,2054.0,435.0,171.9,0.0
676000,2044.0,435.0,171.9,0.0
676012,2033.0,435.0,171.9,0.0
676013,2039.0,435.0,171.9,0.0
676013,2035.0,435.0,171.9,0.0
676027,2065.0,435.0,171.9,0.0
676027,2057.0,435.0,171.9,0.0
676027,2039.0,435.0,171.9,0.0
676028,2065.0,435.0,171.9,0.0
676044,2084.0,435.0,171.9,0.0
676044,2070.0,435.0,171.9,0.0
676044,2069.0,435.0,171.9,0.0
676044,2069.0,435.0,171.9,0.0
676058,2056.0,435.0,171.9,0.0
676059,2038.0,435.0,171.9,0.0
676059,2040.0,435.0,171.9,0.0
676076,2027.0,435.0,171.9,0.0
676076,2036.0,435.0,171.9,0.0
676076,2025.0,435.0,171.9,0.0
676077,2028.0,435.0,171.9,0.0
676089,2051.0,435.0,171.9,0.0
676090,2046.0,435.0,171.9,0.0
676090,2054.0,435.0,171.9,0.0
676102,2063.0,435.0,171.9,0.0
676103,2056.0,435.0,171.9,0.0
676103,2057.0,435.0,171.9,0.0
676103,2059.0,435.0,171.9,0.0
676121,2060.0,435.0,171.9,0.0
676122,2055.0,435.0,171.9,0.0
676122,2056.0,435.0,171.9,0.0
676122,2056.0,435.0,171.9,0.0
676135,2023.0,435.0,171.9,0.0
676136,1992.0,435.0,171.9,0.0
676136,2024.0,435.0,171.9,0.0
676149,2053.0,435.0,171.9,0.0
676149,2065.0,435.0,171.9,0.0
676149,2058.0,435.0,171.9,0.0
676150,2065.0,435.0,171.9,0.0
676166,2069.0,435.0,171.9,0.0
676167,2059.0,435.0,171.9,0.0
676167,2053.0,435.0,171.9,0.0
676167,2044.0,435.0,171.9,0.0
676180,2041.0,435.0,171.9,0.0
676180,2031.0,435.0,171.9,0.0
676180,2038.0,435.0,171.9,0.0
676193,2031.0,434.0,171.9,0.0
676193,2039.0,434.0,171.9,0.0
676194,2038.0,434.0,171.9,0.0
676194,2037.0,434.0,171.9,0.0
676210,2048.0,434.0,171.9,0.0
676211,2057.0,434.0,171.9,0.0
676211,2040.0,434.0,171.9,0.0
676211,2048.0,434.0,171.9,0.0
676225,2066.0,434.0,171.9,0.0
676225,2067.0,434.0,171.9,0.0
676225,2067.0,434.0,171.9,0.0
676241,2055.0,434.0,171.9,0.0
676242,2082.0,434.0,171.9,0.0
676242,2070.0,434.0,171.9,0.0
676242,2086.0,434.0,171.9,0.0
676256,2009.0,434.0,171.9,0.0
676256,2016.0,434.0,171.9,0.0
676256,2017.0,434.0,171.9,0.0
676269,2059.0,434.0,171.9,0.0
676269,2058.0,434.0,171.9,0.0
676269,2055.0,434.0,171.9,0.0
676270,2064.0,434.0,171.9,0.0
676286,2069.0,434.0,171.9,0.0
676287,2073.0,434.0,171.9,0.0
676287,2064.0,434.0,171.9,0.0
676287,2071.0,434.0,171.9,0.0
676300,2037.0,433.0,171.9,0.0
676300,2043.0,433.0,171.9,0.0
676300,2036.0,433.0,171.9,0.0
676313,2035.0,433.0,171.9,0.0
676313,2039.0,433.0,171.9,0.0
676313,2049.0,433.0,171.9,0.0
676330,2065.0,433.0,171.9,0.0
676331,2056.0,433.0,171.9,0.0
676331,2043.0,433.0,171.9,0.0
676331,2053.0,433.0,171.9,0.0
676344,2061.0,433.0,171.9,0.0
676345,2058.0,433.0,171.9,0.0
676345,2063.0,433.0,171.9,0.0
676361,2040.0,433.0,171.9,0.0
676362,2049.0,433.0,171.9,0.0
676362,2062.0,433.0,171.9,0.0
676362,2068.0,433.0,171.9,0.0
676375,2025.0,432.0,171.9,0.0
676376,2009.0,432.0,171.9,0.0
676376,2003.0,432.0,171.9,0.0
676389,2062.0,432.0,171.9,0.0
676389,2061.0,432.0,171.9,0.0
676389,2057.0,432.0,171.9,0.0
676389,2056.0,432.0,171.9,0.0
676406,2072.0,432.0,171.9,0.0
676406,2071.0,432.0,171.9,0.0
676407,2069.0,432.0,171.9,0.0
676407,2060.0,432.0,171.9,0.0
676419,2036.0,431.0,171.9,0.0
676420,2039.0,431.0,171.9,0.0
676420,2050.0,431.0,171.9,0.0
676433,2050.0,431.0,171.9,0.0
676433,2042.0,431.0,171.9,0.0
676433,2043.0,431.0,171.9,0.0
676433,2047.0,431.0,171.9,0.0
676451,2056.0,430.0,171.9,0.0
676451,2054.0,430.0,171.9,0.0
676451,2049.0,430.0,171.9,0.0
676451,2053.0,430.0,171.9,0.0
676465,2062.0,429.0,171.9,0.0
676465,2061.0,429.0,171.9,0.0
676466,2060.0,429.0,171.9,0.0
676482,2052.0,429.0,171.9,0.0
676482,2057.0,429.0,171.9,0.0
676482,2059.0,429.0,171.9,0.0
676482,2051.0,429.0,171.9,0.0
676496,2012.0,429.0,171.9,0.0
676496,2027.0,429.0,171.9,0.0
676497,2012.0,429.0,171.9,0.0
676509,2045.0,428.0,171.9,0.0
676510,2058.0,428.0,171.9,0.0
676510,2064.0,428.0,171.9,0.0
676510,2059.0,428.0,171.9,0.0
676527,2068.0,428.0,171.9,0.0
676527,2069.0,428.0,171.9,0.0
676527,2065.0,428.0,171.9,0.0
676527,2066.0,428.0,171.9,0.0
676540,2034.0,428.0,171.9,0.0
676540,2040.0,428.0,171.9,0.0
676541,2049.0,428.0,171.9,0.0
676554,2036.0,427.0,171.9,0.0
676554,2036.0,427.0,171.9,0.0
676555,2037.0,427.0,171.9,0.0
676555,2031.0,427.0,171.9,0.0
676571,2064.0,427.0,171.9,0.0
676571,2040.0,427.0,171.9,0.0
676571,2051.0,427.0,171.9,0.0
676571,2045.0,427.0,171.9,0.0
676585,2062.0,428.0,171.9,0.0
676585,2063.0,428.0,171.9,0.0
676585,2059.0,428.0,171.9,0.0
676601,2054.0,428.0,171.9,0.0
676602,2059.0,428.0,171.9,0.0
676602,2058.0,428.0,171.9,0.0
676602,2059.0,428.0,171.9,0.0
676616,2022.0,427.0,171.9,0.0
676616,2027.0,427.0,171.9,0.0
676616,2026.0,427.0,171.9,0.0
676629,2055.0,427.0,171.9,0.0
676629,2069.0,427.0,171.9,0.0
676630,2057.0,427.0,171.9,0.0
676630,2059.0,427.0,171.9,0.0
676646,2078.0,427.0,171.9,0.0
676647,2075.0,427.0,171.9,0.0
676647,2070.0,427.0,171.9,0.0
676647,2069.0,427.0,171.9,0.0
676660,2032.0,427.0,171.9,0.0
676660,2039.0,427.0,171.9,0.0
676661,2036.0,427.0,171.9,0.0
676674,2033.0,426.0,171.9,0.0
676674,2029.0,426.0,171.9,0.0
676675,2038.0,426.0,171.9,0.0
676675,2033.0,426.0,171.9,0.0
676691,2055.0,426.0,171.9,0.0
676691,2060.0,426.0,171.9,0.0
676691,2051.0,426.0,171.9,0.0
676692,2064.0,426.0,171.9,0.0
676705,2069.0,425.0,171.9,0.0
676705,2065.0,425.0,171.9,0.0
676706,2060.0,425.0,171.9,0.0
676722,2054.0,425.0,171.9,0.0
676722,2059.0,425.0,171.9,0.0
676722,2058.0,425.0,171.9,0.0
676722,2059.0,425.0,171.9,0.0
676736,2024.0,425.0,171.9,0.0
676736,2034.0,425.0,171.9,0.0
676737,2037.0,425.0,171.9,0.0
676749,2061.0,425.0,171.9,0.0
676750,2052.0,425.0,171.9,0.0
676750,2053.0,425.0,171.9,0.0
676750,2057.0,425.0,171.9,0.0
676767,2073.0,425.0,171.9,0.0
676767,2074.0,425.0,171.9,0.0
676767,2067.0,425.0,171.9,0.0
676767,2067.0,425.0,171.9,0.0
676780,2039.0,425.0,171.9,0.0
676780,2043.0,425.0,171.9,0.0
676781,2046.0,425.0,171.9,0.0
676794,2041.0,426.0,171.9,0.0
676794,2035.0,426.0,171.9,0.0
676795,2041.0,426.0,171.9,0.0
676795,2041.0,426.0,171.9,0.0
676811,2061.0,426.0,171.9,0.0
676811,2054.0,426.0,171.9,0.0
676811,2052.0,426.0,171.9,0.0
676811,2060.0,426.0,171.9,0.0
676825,2072.0,426.0,171.9,0.0
676826,2059.0,426.0,171.9,0.0
676826,2061.0,426.0,171.9,0.0
676843,2055.0,426.0,171.9,0.0
676843,2073.0,426.0,171.9,0.0
676843,2071.0,426.0,171.9,0.0
676844,2069.0,426.0,171.9,0.0
676856,2058.0,426.0,171.9,0.0
676857,2072.0,426.0,171.9,0.0
676857,2055.0,426.0,171.9,0.0
676869,2042.0,427.0,171.9,0.0
676870,2067.0,427.0,171.9,0.0
676870,2041.0,427.0,171.9,0.0
676870,2048.0,427.0,171.9,0.0
676887,2086.0,428.0,171.9,0.0
676887,2071.0,428.0,171.9,0.0
676888,2074.0,428.0,171.9,0.0
676888,2069.0,428.0,171.9,0.0
676900,2040.0,428.0,171.9,0.0
676901,2041.0,428.0,171.9,0.0
676901,2046.0,428.0,171.9,0.0
676918,2033.0,428.0,171.9,0.0
676918,2037.0,428.0,171.9,0.0
676918,2041.0,428.0,171.9,0.0
676918,2044.0,428.0,171.9,0.0
676931,2040.0,428.0,171.9,0.0
676931,2042.0,428.0,171.9,0.0
676932,2025.0,428.0,171.9,0.0
676945,2060.0,428.0,171.9,0.0
676946,2068.0,428.0,171.9,0.0
676946,2069.0,428.0,171.9,0.0
676946,2065.0,428.0,171.9,0.0
676964,2074.0,428.0,171.9,0.0
676964,2060.0,428.0,171.9,0.0
676964,2074.0,428.0,171.9,0.0
676965,2072.0,428.0,171.9,0.0
676977,2024.0,428.0,171.9,0.0
676978,2028.0,428.0,171.9,0.0
676978,2023.0,428.0,171.9,0.0
676990,2057.0,428.0,171.9,0.0
676991,2054.0,428.0,171.9,0.0
676991,2056.0,428.0,171.9,0.0
676991,2052.0,428.0,171.9,0.0
677008,2068.0,428.0,171.9,0.0
677008,2072.0,428.0,171.9,0.0
677008,2056.0,428.0,171.9,0.0
677009,2061.0,428.0,171.9,0.0
677022,2058.0,428.0,171.9,0.0
677022,2066.0,428.0,171.9,0.0
677023,2056.0,428.0,171.9,0.0
677038,2028.0,428.0,171.9,0.0
677039,2037.0,428.0,171.9,0.0
677039,2046.0,428.0,171.9,0.0
677039,2032.0,428.0,171.9,0.0
677053,2036.0,428.0,171.9,0.0
677053,2028.0,428.0,171.9,0.0
677053,2054.0,428.0,171.9,0.0
677066,2072.0,428.0,171.9,0.0
677066,2089.0,428.0,171.9,0.0
677067,2064.0,428.0,171.9,0.0
677067,2069.0,428.0,171.9,0.0
677085,2072.0,428.0,171.9,0.0
677085,2068.0,428.0,171.9,0.0
677085,2065.0,428.0,171.9,0.0
677085,2055.0,428.0,171.9,0.0
677098,2035.0,428.0,171.9,0.0
677098,2035.0,428.0,171.9,0.0
677099,2038.0,428.0,171.9,0.0
677112,2044.0,428.0,171.9,0.0
677112,2039.0,428.0,171.9,0.0
677113,2030.0,428.0,171.9,0.0
677113,2046.0,428.0,171.9,0.0
677129,2069.0,429.0,171.9,0.0
677129,2056.0,429.0,171.9,0.0
677129,2058.0,429.0,171.9,0.0
677129,2063.0,429.0,171.9,0.0
677143,2062.0,429.0,171.9,0.0
677143,2055.0,429.0,171.9,0.0
677143,2053.0,429.0,171.9,0.0
677159,2035.0,429.0,171.9,0.0
677160,2056.0,429.0,171.9,0.0
677160,2043.0,429.0,171.9,0.0
677160,2033.0,429.0,171.9,0.0
677174,2039.0,430.0,171.9,0.0
677174,2037.0,430.0,171.9,0.0
677174,2038.0,430.0,171.9,0.0
677187,2068.0,430.0,171.9,0.0
677187,2086.0,430.0,171.9,0.0
677187,2072.0,430.0,171.9,0.0
677188,2065.0,430.0,171.9,0.0
677205,2071.0,430.0,171.9,0.0
677206,2070.0,430.0,171.9,0.0
677206,2079.0,430.0,171.9,0.0
677206,2068.0,430.0,171.9,0.0
677219,2028.0,430.0,171.9,0.0
677219,2030.0,430.0,171.9,0.0
677220,2013.0,430.0,171.9,0.0
677233,2035.0,430.0,171.9,0.0
677234,2034.0,430.0,171.9,0.0
677234,2042.0,430.0,171.9,0.0
677234,2050.0,430.0,171.9,0.0
677252,2057.0,430.0,171.9,0.0
677252,2034.0,430.0,171.9,0.0
677253,2056.0,430.0,171.9,0.0
677253,2055.0,430.0,171.9,0.0
677265,2072.0,430.0,171.9,0.0
677266,2066.0,430.0,171.9,0.0
677266,2065.0,430.0,171.9,0.0
677283,2049.0,431.0,171.9,0.0
677283,2060.0,431.0,171.9,0.0
677283,2061.0,431.0,171.9,0.0
677284,2058.0,431.0,171.9,0.0
677296,2028.0,431.0,171.9,0.0
677297,2031.0,431.0,171.9,0.0
677297,2034.0,431.0,171.9,0.0
677314,2053.0,431.0,171.9,0.0
677314,2045.0,431.0,171.9,0.0
677314,2048.0,431.0,171.9,0.0
677314,2043.0,431.0,171.9,0.0
677327,2085.0,431.0,171.9,0.0
677328,2062.0,431.0,171.9,0.0
677328,2067.0,431.0,171.9,0.0
677341,2023.0,431.0,171.9,0.0
677342,2047.0,431.0,171.9,0.0
677342,2050.0,431.0,171.9,0.0
677342,2054.0,431.0,171.9,0.0
677358,2036.0,431.0,171.9,0.0
677359,1988.0,431.0,171.9,0.0
677359,1997.0,431.0,171.9,0.0
677360,2001.0,431.0,171.9,0.0
677373,2033.0,432.0,171.9,0.0
677374,2032.0,432.0,171.9,0.0
677374,2034.0,432.0,171.9,0.0
677391,2014.0,432.0,171.9,0.0
677392,2048.0,432.0,171.9,0.0
677392,2042.0,432.0,171.9,0.0
677392,2042.0,432.0,171.9,0.0
677405,2062.0,432.0,171.9,0.0
677405,2063.0,432.0,171.9,0.0
677406,2056.0,432.0,171.9,0.0
677418,2019.0,432.0,171.9,0.0
677419,2023.0,432.0,171.9,0.0
677419,2024.0,432.0,171.9,0.0
677419,2025.0,432.0,171.9,0.0
677436,2031.0,432.0,171.9,0.0
677436,2036.0,432.0,171.9,0.0
677437,2039.0,432.0,171.9,0.0
677437,2030.0,432.0,171.9,0.0
677449,2052.0,432.0,171.9,0.0
677450,2051.0,432.0,171.9,0.0
677450,2041.0,432.0,171.9,0.0
677467,2071.0,432.0,171.9,0.0
677467,2072.0,432.0,171.9,0.0
677467,2062.0,432.0,171.9,0.0
677468,2081.0,432.0,171.9,0.0
677481,2040.0,432.0,171.9,0.0
677481,2062.0,432.0,171.9,0.0
677482,2042.0,432.0,171.9,0.0
677494,2044.0,433.0,171.9,0.0
677495,2033.0,433.0,171.9,0.0
677495,2038.0,433.0,171.9,0.0
677495,2034.0,433.0,171.9,0.0
677513,2039.0,433.0,171.9,0.0
677514,2040.0,433.0,171.9,0.0
677514,2037.0,433.0,171.9,0.0
677514,2036.0,433.0,171.9,0.0
677527,2077.0,433.0,171.9,0.0
677527,2069.0,433.0,171.9,0.0
677528,2058.0,433.0,171.9,0.0
677541,2044.0,434.0,171.9,0.0
677542,2067.0,434.0,171.9,0.0
677543,1980.0,434.0,171.9,0.0
677543,2025.0,434.0,171.9,0.0
677560,2027.0,434.0,171.9,0.0
677560,2031.0,434.0,171.9,0.0
677561,2034.0,434.0,171.9,0.0
677561,2038.0,434.0,171.9,0.0
677573,2038.0,435.0,171.9,0.0
677574,2028.0,435.0,171.9,0.0
677574,2025.0,435.0,171.9,0.0
677591,2055.0,435.0,159.6,0.0
677591,2053.0,435.0,159.6,0.0
677591,2053.0,435.0,159.6,0.0
677592,2057.0,435.0,159.6,0.0
677604,2066.0,435.0,159.6,0.0
677605,2064.0,435.0,159.6,0.0
677605,2061.0,435.0,159.6,0.0
677621,2043.0,436.0,159.6,0.0
677622,2045.0,436.0,159.6,0.0
677622,2040.0,436.0,159.6,0.0
677622,2050.0,436.0,159.6,0.0
677635,2033.0,436.0,159.6,0.0
677635,2036.0,436.0,159.6,0.0
677635,2033.0,436.0,159.6,0.0
677648,2063.0,436.0,159.6,0.0
677648,2052.0,436.0,159.6,0.0
677649,2057.0,436.0,159.6,0.0
677649,2134.0,436.0,159.6,0.0
677666,2035.0,437.0,159.6,0.0
677667,2045.0,437.0,159.6,0.0
677667,2041.0,437.0,159.6,0.0
677667,2035.0,437.0,159.6,0.0
677681,2030.0,437.0,159.6,0.0
677681,2029.0,437.0,159.6,0.0
677681,2035.0,437.0,159.6,0.0
677697,2032.0,437.0,159.6,0.0
677698,2032.0,437.0,159.6,0.0
677698,2037.0,437.0,159.6,0.0
677698,2037.0,437.0,159.6,0.0
677712,2043.0,438.0,159.6,0.0
677712,2040.0,438.0,159.6,0.0
677712,2041.0,438.0,159.6,0.0
677725,2060.0,438.0,159.6,0.0
677725,2069.0,438.0,159.6,0.0
677726,2065.0,438.0,159.6,0.0
677726,2065.0,438.0,159.6,0.0
677743,2058.0,438.0,159.6,0.0
677743,2056.0,438.0,159.6,0.0
677743,2064.0,438.0,159.6,0.0
677743,2059.0,438.0,159.6,0.0
677756,2023.0,438.0,159.6,0.0
677756,2034.0,438.0,159.6,0.0
677757,2030.0,438.0,159.6,0.0
677770,2043.0,438.0,159.6,0.0
677771,2069.0,438.0,159.6,0.0
677771,2059.0,438.0,159.6,0.0
677771,2062.0,438.0,159.6,0.0
677787,2071.0,438.0,159.6,0.0
677787,2069.0,438.0,159.6,0.0
677787,2069.0,438.0,159.6,0.0
677787,2069.0,438.0,159.6,0.0
677801,2037.0,438.0,159.6,0.0
677801,2039.0,438.0,159.6,0.0
677802,2037.0,438.0,159.6,0.0
677818,2038.0,438.0,159.6,0.0
677818,2033.0,438.0,159.6,0.0
677818,2035.0,438.0,159.6,0.0
677819,2034.0,438.0,159.6,0.0
677832,2041.0,438.0,159.6,0.0
677833,2048.0,438.0,159.6,0.0
677833,2046.0,438.0,159.6,0.0
677845,2062.0,438.0,159.6,0.0
677846,2072.0,438.0,159.6,0.0
677846,2072.0,438.0,159.6,0.0
677846,2070.0,438.0,159.6,0.0
677863,2057.0,438.0,159.6,0.0
677864,2068.0,438.0,159.6,0.0
677864,2066.0,438.0,159.6,0.0
677864,2064.0,438.0,159.6,0.0
677877,2026.0,438.0,159.6,0.0
677877,2012.0,438.0,159.6,0.0
677877,2026.0,438.0,159.6,0.0
677891,2055.0,437.0,159.6,0.0
677891,2056.0,437.0,159.6,0.0
677891,2053.0,437.0,159.6,0.0
677891,2062.0,437.0,159.6,0.0
677907,2071.0,437.0,159.6,0.0
677908,2065.0,437.0,159.6,0.0
677908,2062.0,437.0,159.6,0.0
677908,2072.0,437.0,159.6,0.0
677921,2044.0,437.0,159.6,0.0
677922,2044.0,437.0,159.6,0.0
677922,2041.0,437.0,159.6,0.0
677939,2029.0,436.0,159.6,0.0
677939,2032.0,436.0,159.6,0.0
677940,2036.0,436.0,159.6,0.0
677940,2040.0,436.0,159.6,0.0
677952,2049.0,436.0,159.6,0.0
677953,2029.0,436.0,159.6,0.0
677953,2034.0,436.0,159.6,0.0
677966,2075.0,436.0,159.6,0.0
677966,2071.0,436.0,159.6,0.0
677966,2067.0,436.0,159.6,0.0
677966,2069.0,436.0,159.6,0.0
677984,2062.0,437.0,159.6,0.0
677984,2069.0,437.0,159.6,0.0
677984,2070.0,437.0,159.6,0.0
677984,2073.0,437.0,159.6,0.0
677997,1985.0,437.0,159.6,0.0
677998,2025.0,437.0,159.6,0.0
677998,2028.0,437.0,159.6,0.0
678011,2056.0,437.0,159.6,0.0
678012,2047.0,437.0,159.6,0.0
678012,2051.0,437.0,159.6,0.0
678012,2052.0,437.0,159.6,0.0
678029,2068.0,437.0,159.6,0.0
678029,2064.0,437.0,159.6,0.0
678030,2058.0,437.0,159.6,0.0
678030,2065.0,437.0,159.6,0.0
678042,2046.0,437.0,159.6,0.0
678043,2056.0,437.0,159.6,0.0
678043,2042.0,437.0,159.6,0.0
678060,2030.0,437.0,159.6,0.0
678061,2004.0,437.0,159.6,0.0
678061,2061.0,437.0,159.6,0.0
678061,2021.0,437.0,159.6,0.0
678074,2035.0,436.0,159.6,0.0
678074,2042.0,436.0,159.6,0.0
678074,2051.0,436.0,159.6,0.0
678087,2055.0,436.0,159.6,0.0
678087,2071.0,436.0,159.6,0.0
678087,2066.0,436.0,159.6,0.0
678088,2068.0,436.0,159.6,0.0
678104,2068.0,436.0,159.6,0.0
678105,2063.0,436.0,159.6,0.0
678105,2069.0,436.0,159.6,0.0
678105,2068.0,436.0,159.6,0.0
678119,2025.0,436.0,159.6,0.0
678119,2008.0,436.0,159.6,0.0
678120,2024.0,436.0,159.6,0.0
678135,2042.0,436.0,159.6,0.0
678136,2031.0,436.0,159.6,0.0
678136,2026.0,436.0,159.6,0.0
678136,2036.0,436.0,159.6,0.0
678150,2068.0,435.0,159.6,0.0
678151,2065.0,435.0,159.6,0.0
678151,2065.0,435.0,159.6,0.0
678163,2038.0,435.0,159.6,0.0
678164,2058.0,435.0,159.6,0.0
678164,2062.0,435.0,159.6,0.0
678164,2049.0,435.0,159.6,0.0
678181,2037.0,435.0,159.6,0.0
678182,2047.0,435.0,159.6,0.0
678182,2049.0,435.0,159.6,0.0
678182,2049.0,435.0,159.6,0.0
678195,2029.0,435.0,159.6,0.0
678195,2033.0,435.0,159.6,0.0
678195,2030.0,435.0,159.6,0.0
678209,2071.0,435.0,159.6,0.0
678209,2075.0,435.0,159.6,0.0
678209,2061.0,435.0,159.6,0.0
678210,2064.0,435.0,159.6,0.0
678225,2069.0,435.0,159.6,0.0
678226,2059.0,435.0,159.6,0.0
678226,2065.0,435.0,159.6,0.0
678226,2065.0,435.0,159.6,0.0
678240,2028.0,435.0,159.6,0.0
678240,2040.0,435.0,159.6,0.0
678240,2036.0,435.0,159.6,0.0
678256,2030.0,435.0,159.6,0.0
678257,2027.0,435.0,159.6,0.0
678257,2022.0,435.0,159.6,0.0
678257,2030.0,435.0,159.6,0.0
678271,2056.0,435.0,159.6,0.0
678271,2051.0,435.0,159.6,0.0
678271,2053.0,435.0,159.6,0.0
678284,2057.0,435.0,159.6,0.0
678285,2064.0,435.0,159.6,0.0
678285,2075.0,435.0,159.6,0.0
678285,2065.0,435.0,159.6,0.0
678303,2054.0,435.0,159.6,0.0
678304,2066.0,435.0,159.6,0.0
678304,2070.0,435.0,159.6,0.0
678304,2070.0,435.0,159.6,0.0
678318,2021.0,434.0,159.6,0.0
678318,2024.0,434.0,159.6,0.0
678318,2024.0,434.0,159.6,0.0
678331,2024.0,434.0,159.6,0.0
678331,2053.0,434.0,159.6,0.0
678331,2058.0,434.0,159.6,0.0
678332,2053.0,434.0,159.6,0.0
678348,2064.0,434.0,159.6,0.0
678349,2070.0,434.0,159.6,0.0
678349,2067.0,434.0,159.6,0.0
678349,2091.0,434.0,159.6,0.0
678362,2048.0,434.0,159.6,0.0
678362,2038.0,434.0,159.6,0.0
678362,2040.0,434.0,159.6,0.0
678375,2036.0,434.0,159.6,0.0
678375,2037.0,434.0,159.6,0.0
678375,2049.0,434.0,159.6,0.0
678392,2062.0,434.0,159.6,0.0
678393,2055.0,434.0,159.6,0.0
678393,2058.0,434.0,159.6,0.0
678393,2057.0,434.0,159.6,0.0
678406,2060.0,434.0,159.6,0.0
678406,2064.0,434.0,159.6,0.0
678406,2067.0,434.0,159.6,0.0
678423,2042.0,433.0,159.6,0.0
678424,2052.0,433.0,159.6,0.0
678424,2048.0,433.0,159.6,0.0
678424,2070.0,433.0,159.6,0.0
678438,2025.0,433.0,159.6,0.0
678438,2023.0,433.0,159.6,0.0
678438,2020.0,433.0,159.6,0.0
678451,2007.0,433.0,159.6,0.0
678452,2057.0,433.0,159.6,0.0
678452,2055.0,433.0,159.6,0.0
678452,2052.0,433.0,159.6,0.0
678469,2066.0,432.0,159.6,0.0
678469,2058.0,432.0,159.6,0.0
678470,2061.0,432.0,159.6,0.0
678470,2059.0,432.0,159.6,0.0
678482,2041.0,432.0,159.6,0.0
678483,2055.0,432.0,159.6,0.0
678483,2049.0,432.0,159.6,0.0
678500,2028.0,432.0,159.6,0.0
678500,2028.0,432.0,159.6,0.0
678500,2032.0,432.0,159.6,0.0
678501,2033.0,432.0,159.6,0.0
678513,2031.0,432.0,159.6,0.0
678514,2035.0,432.0,159.6,0.0
678514,2055.0,432.0,159.6,0.0
678527,2066.0,432.0,159.6,0.0
678528,2065.0,432.0,159.6,0.0
678528,2064.0,432.0,159.6,0.0
678528,2072.0,432.0,159.6,0.0
678545,2058.0,431.0,159.6,0.0
678545,2060.0,431.0,159.6,0.0
678545,2055.0,431.0,159.6,0.0
678546,2054.0,431.0,159.6,0.0
678559,2026.0,431.0,159.6,0.0
678559,2025.0,431.0,159.6,0.0
678560,2022.0,431.0,159.6,0.0
678572,2057.0,431.0,159.6,0.0
678573,2035.0,431.0,159.6,0.0
678573,2061.0,431.0,159.6,0.0
678573,2037.0,431.0,159.6,0.0
678591,2066.0,430.0,159.6,0.0
678591,2065.0,430.0,159.6,0.0
678591,2068.0,430.0,159.6,0.0
678591,2066.0,430.0,159.6,0.0
678604,2023.0,430.0,159.6,0.0
678605,2045.0,430.0,159.6,0.0
678605,2040.0,430.0,159.6,0.0
678622,2037.0,429.0,159.6,0.0
678622,2036.0,429.0,159.6,0.0
678622,2057.0,429.0,159.6,0.0
678622,2049.0,429.0,159.6,0.0
678635,2029.0,429.0,159.6,0.0
678635,2022.0,429.0,159.6,0.0
678636,2035.0,429.0,159.6,0.0
678649,2069.0,428.0,159.6,0.0
678649,2059.0,428.0,159.6,0.0
678650,2049.0,428.0,159.6,0.0
678650,2061.0,428.0,159.6,0.0
678668,2074.0,428.0,159.6,0.0
678668,2071.0,428.0,159.6,0.0
678668,2083.0,428.0,159.6,0.0
678668,2066.0,428.0,159.6,0.0
678681,2033.0,427.0,159.6,0.0
678681,2039.0,427.0,159.6,0.0
678682,2036.0,427.0,159.6,0.0
678694,2036.0,427.0,159.6,0.0
678695,2042.0,427.0,159.6,0.0
678695,2038.0,427.0,159.6,0.0
678695,2037.0,427.0,159.6,0.0
678712,2061.0,427.0,159.6,0.0
678712,2057.0,427.0,159.6,0.0
678712,2052.0,427.0,159.6,0.0
678713,2056.0,427.0,159.6,0.0
678726,2069.0,427.0,159.6,0.0
678727,2065.0,427.0,159.6,0.0
678727,2054.0,427.0,159.6,0.0
678743,2052.0,426.0,159.6,0.0
678743,2038.0,426.0,159.6,0.0
678743,2048.0,426.0,159.6,0.0
678744,2049.0,426.0,159.6,0.0
678757,2028.0,427.0,159.6,0.0
678758,2033.0,427.0,159.6,0.0
678758,2036.0,427.0,159.6,0.0
678770,2057.0,427.0,159.6,0.0
678771,2053.0,427.0,159.6,0.0
678771,2054.0,427.0,159.6,0.0
678771,2053.0,427.0,159.6,0.0
678789,2074.0,426.0,159.6,0.0
678790,2067.0,426.0,159.6,0.0
678790,2069.0,426.0,159.6,0.0
678790,2056.0,426.0,159.6,0.0
678803,2052.0,426.0,159.6,0.0
678803,2047.0,426.0,159.6,0.0
678804,2051.0,426.0,159.6,0.0
678817,2027.0,427.0,159.6,0.0
678817,2031.0,427.0,159.6,0.0
678818,2025.0,427.0,159.6,0.0
678818,2010.0,427.0,159.6,0.0
678834,2046.0,426.0,159.6,0.0
678834,2047.0,426.0,159.6,0.0
678834,2043.0,426.0,159.6,0.0
678834,2046.0,426.0,159.6,0.0
678848,2063.0,426.0,159.6,0.0
678848,2042.0,426.0,159.6,0.0
678849,2073.0,426.0,159.6,0.0
678866,2056.0,426.0,159.6,0.0
678866,2062.0,426.0,159.6,0.0
678866,2072.0,426.0,159.6,0.0
678866,2058.0,426.0,159.6,0.0
678879,2012.0,426.0,159.6,0.0
678879,2027.0,426.0,159.6,0.0
678880,2025.0,426.0,159.6,0.0
678892,2057.0,426.0,159.6,0.0
678893,2041.0,426.0,159.6,0.0
678893,2054.0,426.0,159.6,0.0
678893,2045.0,426.0,159.6,0.0
678911,2057.0,426.0,159.6,0.0
678912,2045.0,426.0,159.6,0.0
678912,2050.0,426.0,159.6,0.0
678912,2054.0,426.0,159.6,0.0
678926,2059.0,426.0,159.6,0.0
678926,2057.0,426.0,159.6,0.0
678926,2057.0,426.0,159.6,0.0
678939,2028.0,426.0,159.6,0.0
678940,2029.0,426.0,159.6,0.0
678940,2026.0,426.0,159.6,0.0
678940,2027.0,426.0,159.6,0.0
678957,2036.0,426.0,159.6,0.0
678957,2034.0,426.0,159.6,0.0
678957,2035.0,426.0,159.6,0.0
678958,2037.0,426.0,159.6,0.0
678970,2056.0,426.0,159.6,0.0
678970,2036.0,426.0,159.6,0.0
678971,2056.0,426.0,159.6,0.0
678983,2044.0,426.0,159.6,0.0
678984,2045.0,426.0,159.6,0.0
678984,2044.0,426.0,159.6,0.0
679001,2026.0,427.0,159.6,0.0
679001,2025.0,427.0,159.6,0.0
679001,2043.0,427.0,159.6,0.0
679001,2032.0,427.0,159.6,0.0
679015,2036.0,427.0,159.6,0.0
679015,2036.0,427.0,159.6,0.0
679015,2027.0,427.0,159.6,0.0
679031,2054.0,427.0,159.6,0.0
679032,2057.0,427.0,159.6,0.0
679032,2065.0,427.0,157.3,0.0
679032,2055.0,427.0,157.3,0.0
679046,2054.0,427.0,157.3,0.0
679046,2059.0,427.0,157.3,0.0
679046,2055.0,427.0,157.3,0.0
679059,2042.0,427.0,157.3,0.0
679059,2033.0,427.0,157.3,0.0
679060,2028.0,427.0,157.3,0.0
679060,2024.0,427.0,157.3,0.0
679076,2034.0,427.0,157.3,0.0
679077,2035.0,427.0,157.3,0.0
679077,2035.0,427.0,157.3,0.0
679077,2045.0,427.0,157.3,0.0
679090,2066.0,427.0,157.3,0.0
679090,2058.0,427.0,157.3,0.0
679090,2056.0,427.0,157.3,0.0
679103,2040.0,427.0,157.3,0.0
679103,2051.0,427.0,157.3,0.0
679104,2041.0,427.0,157.3,0.0
679104,2048.0,427.0,157.3,0.0
679121,2036.0,428.0,157.3,0.0
679121,2034.0,428.0,157.3,0.0
679121,2035.0,428.0,157.3,0.0
679121,2033.0,428.0,157.3,0.0
679135,2039.0,428.0,157.3,0.0
679135,2025.0,428.0,157.3,0.0
679135,2044.0,428.0,157.3,0.0
679152,2072.0,428.0,157.3,0.0
679152,2066.0,428.0,157.3,0.0
679152,2051.0,428.0,157.3,0.0
679152,2067.0,428.0,157.3,0.0
679166,2067.0,429.0,157.3,0.0
679166,2057.0,429.0,157.3,0.0
679167,2057.0,429.0,157.3,0.0
679179,2030.0,429.0,157.3,0.0
679180,2034.0,429.0,157.3,0.0
679180,2024.0,429.0,157.3,0.0
679180,2033.0,429.0,157.3,0.0
679197,2050.0,429.0,157.3,0.0
679197,2047.0,429.0,157.3,0.0
679197,2046.0,429.0,157.3,0.0
679197,2046.0,429.0,157.3,0.0
679210,2070.0,429.0,157.3,0.0
679211,2051.0,429.0,157.3,0.0
679211,2057.0,429.0,157.3,0.0
679228,2070.0,429.0,157.3,0.0
679228,2055.0,429.0,157.3,0.0
679228,2068.0,429.0,157.3,0.0
679228,2085.0,429.0,157.3,0.0
679241,2039.0,429.0,157.3,0.0
679241,2043.0,429.0,157.3,0.0
679242,2036.0,429.0,157.3,0.0
679255,2049.0,430.0,157.3,0.0
679256,2049.0,430.0,157.3,0.0
679256,2044.0,430.0,157.3,0.0
679256,2056.0,430.0,157.3,0.0
679274,2060.0,430.0,157.3,0.0
679275,2065.0,430.0,157.3,0.0
679275,2045.0,430.0,157.3,0.0
679275,2035.0,430.0,157.3,0.0
679288,2069.0,430.0,157.3,0.0
679288,2074.0,430.0,157.3,0.0
679288,2068.0,430.0,157.3,0.0
679301,2030.0,430.0,157.3,0.0
679301,2042.0,430.0,157.3,0.0
679301,2014.0,430.0,157.3,0.0
679302,2037.0,430.0,157.3,0.0
679318,2036.0,431.0,157.3,0.0
679319,2032.0,431.0,157.3,0.0
679319,2038.0,431.0,157.3,0.0
679319,2034.0,431.0,157.3,0.0
679332,2053.0,431.0,157.3,0.0
679332,2048.0,431.0,157.3,0.0
679332,2054.0,431.0,157.3,0.0
679346,2059.0,431.0,157.3,0.0
679346,2061.0,431.0,157.3,0.0
679346,2077.0,431.0,164.5,0.0
679347,2061.0,431.0,164.5,0.0
679362,2038.0,431.0,164.5,0.0
679363,2059.0,431.0,164.5,0.0
679363,2047.0,431.0,164.5,0.0
679363,2044.0,431.0,164.5,0.0
679377,2027.0,431.0,164.5,0.0
679377,2033.0,431.0,164.5,0.0
679377,2042.0,431.0,164.5,0.0
679394,2052.0,431.0,164.5,0.0
679395,2050.0,431.0,164.5,0.0
679395,2048.0,431.0,164.5,0.0
679395,2048.0,431.0,164.5,0.0
679408,2068.0,431.0,164.5,0.0
679408,2069.0,431.0,164.5,0.0
679408,2069.0,431.0,164.5,0.0
679421,2049.0,431.0,164.5,0.0
679421,2032.0,431.0,164.5,0.0
679421,2036.0,431.0,164.5,0.0
679422,2036.0,431.0,164.5,0.0
679438,2037.0,431.0,164.5,0.0
679439,2035.0,431.0,164.5,0.0
679439,2033.0,431.0,164.5,0.0
679439,2034.0,431.0,164.5,0.0
679452,2058.0,431.0,164.5,0.0
679452,2057.0,431.0,164.5,0.0
679452,2029.0,431.0,164.5,0.0
679466,2066.0,432.0,164.5,0.0
679466,2061.0,432.0,164.5,0.0
679466,2060.0,432.0,164.5,0.0
679466,2059.0,432.0,164.5,0.0
679482,2039.0,432.0,164.5,0.0
679483,2044.0,432.0,164.5,0.0
679483,2046.0,432.0,164.5,0.0
679483,2049.0,432.0,164.5,0.0
679496,2054.0,432.0,164.5,0.0
679497,2044.0,432.0,164.5,0.0
679497,2040.0,432.0,164.5,0.0
679514,2053.0,432.0,164.5,0.0
679514,2046.0,432.0,164.5,0.0
679515,2042.0,432.0,164.5,0.0
679515,2049.0,432.0,164.5,0.0
679527,2068.0,432.0,164.5,0.0
679528,2067.0,432.0,164.5,0.0
679528,2059.0,432.0,164.5,0.0
679541,2032.0,432.0,164.5,0.0
679541,2036.0,432.0,164.5,0.0
679541,2037.0,432.0,164.5,0.0
679542,2037.0,432.0,164.5,0.0
679558,2033.0,432.0,164.5,0.0
679559,2034.0,432.0,164.5,0.0
679559,2040.0,432.0,164.5,0.0
679559,2037.0,432.0,164.5,0.0
679571,2059.0,432.0,164.5,0.0
679572,2056.0,432.0,164.5,0.0
679572,2056.0,432.0,164.5,0.0
679586,2062.0,432.0,164.5,0.0
679586,2059.0,432.0,164.5,0.0
679586,2062.0,432.0,164.5,0.0
679586,2057.0,432.0,164.5,0.0
679603,2044.0,432.0,164.5,0.0
679603,2054.0,432.0,164.5,0.0
679604,2052.0,432.0,164.5,0.0
679604,2047.0,432.0,164.5,0.0
679616,2038.0,432.0,164.5,0.0
679617,2035.0,432.0,164.5,0.0
679617,2036.0,432.0,164.5,0.0
679634,2054.0,432.0,164.5,0.0
679634,2064.0,432.0,164.5,0.0
679635,2049.0,432.0,164.5,0.0
679635,2056.0,432.0,164.5,0.0
679647,2067.0,433.0,164.5,0.0
679648,2066.0,433.0,164.5,0.0
679648,2063.0,433.0,164.5,0.0
679661,2032.0,433.0,164.5,0.0
679661,2029.0,433.0,164.5,0.0
679661,2034.0,433.0,164.5,0.0
679662,2032.0,433.0,164.5,0.0
679678,2041.0,433.0,164.5,0.0
679679,2037.0,433.0,164.5,0.0
679679,2039.0,433.0,164.5,0.0
679679,2035.0,433.0,164.5,0.0
679693,2056.0,434.0,164.5,0.0
679693,2050.0,434.0,164.5,0.0
679694,2055.0,434.0,164.5,0.0
679709,2070.0,434.0,160.0,0.0
679710,2099.0,434.0,160.0,0.0
679710,2063.0,434.0,160.0,0.0
679710,2066.0,434.0,160.0,0.0
679724,2038.0,435.0,160.0,0.0
679724,2047.0,435.0,160.0,0.0
679724,2049.0,435.0,160.0,0.0
679737,2040.0,435.0,160.0,0.0
679737,2037.0,435.0,160.0,0.0
679737,2040.0,435.0,160.0,0.0
679738,2041.0,435.0,160.0,0.0
679755,2042.0,436.0,160.0,0.0
679756,2024.0,436.0,160.0,0.0
679756,2041.0,436.0,160.0,0.0
679756,2041.0,436.0,160.0,0.0
679769,2070.0,436.0,160.0,0.0
679769,2069.0,436.0,160.0,0.0
679769,2072.0,436.0,160.0,0.0
679783,2034.0,436.0,160.0,0.0
679783,2039.0,436.0,160.0,0.0
679783,2043.0,436.0,160.0,0.0
679784,2031.0,436.0,160.0,0.0
679799,2039.0,437.0,160.0,0.0
679800,2033.0,437.0,160.0,0.0
679800,2026.0,437.0,160.0,0.0
679800,2036.0,437.0,160.0,0.0
679814,2054.0,438.0,160.0,0.0
679814,2038.0,438.0,160.0,0.0
679814,2051.0,438.0,160.0,0.0
679830,2073.0,438.0,160.0,0.0
679830,2061.0,438.0,160.0,0.0
679831,2081.0,438.0,160.0,0.0
679831,2066.0,438.0,160.0,0.0
679844,2053.0,438.0,160.0,0.0
679845,2063.0,438.0,160.0,0.0
679845,2053.0,438.0,160.0,0.0
679858,2036.0,438.0,160.0,0.0
679858,2049.0,438.0,160.0,0.0
679858,2037.0,438.0,160.0,0.0
679858,2035.0,438.0,160.0,0.0
679876,2045.0,439.0,160.0,0.0
679876,2040.0,439.0,160.0,0.0
679877,2036.0,439.0,160.0,0.0
679877,2043.0,439.0,160.0,0.0
679889,2072.0,439.0,160.0,0.0
679890,2050.0,439.0,160.0,0.0
679890,2059.0,439.0,160.0,0.0
679904,2042.0,438.0,160.0,0.0
679904,2042.0,438.0,160.0,0.0
679904,2041.0,438.0,160.0,0.0
679904,2044.0,438.0,160.0,0.0
679920,2021.0,438.0,160.0,0.0
679921,2028.0,438.0,160.0,0.0
679921,2030.0,438.0,160.0,0.0
679921,2010.0,438.0,160.0,0.0
679934,2051.0,439.0,160.0,0.0
679935,2050.0,439.0,160.0,0.0
679935,2052.0,439.0,160.0,0.0
679952,2092.0,439.0,160.0,0.0
679952,2062.0,439.0,160.0,0.0
679952,2057.0,439.0,160.0,0.0
679952,2063.0,439.0,160.0,0.0
679965,2055.0,439.0,160.0,0.0
679965,2054.0,439.0,160.0,0.0
679966,2056.0,439.0,160.0,0.0
679978,2038.0,439.0,160.0,0.0
679979,2041.0,439.0,160.0,0.0
679979,2030.0,439.0,160.0,0.0
679979,2033.0,439.0,160.0,0.0
679997,2043.0,439.0,160.0,0.0
679997,2043.0,439.0,160.0,0.0
679997,2043.0,439.0,160.0,0.0
679997,2043.0,439.0,160.0,0.0
680010,2045.0,438.0,160.0,0.0
680010,2069.0,438.0,160.0,0.0
680011,2058.0,438.0,160.0,0.0
680024,2050.0,438.0,160.0,0.0
680025,2051.0,438.0,160.0,0.0
680025,2057.0,438.0,160.0,0.0
680025,2058.0,438.0,160.0,0.0
680042,2036.0,438.0,160.0,0.0
680042,2038.0,438.0,160.0,0.0
680042,2028.0,438.0,160.0,0.0
680042,2036.0,438.0,160.0,0.0
680055,2041.0,438.0,160.0,0.0
680056,2034.0,438.0,160.0,0.0
680056,2042.0,438.0,160.0,0.0
680073,2057.0,437.0,160.0,0.0
680073,2060.0,437.0,160.0,0.0
680073,2091.0,437.0,161.9,0.0
680074,2058.0,437.0,161.9,0.0
680086,2058.0,437.0,161.9,0.0
680087,2058.0,437.0,161.9,0.0
680087,2075.0,437.0,161.9,0.0
680100,2023.0,437.0,161.9,0.0
680100,2025.0,437.0,161.9,0.0
680101,2028.0,437.0,161.9,0.0
680101,2025.0,437.0,161.9,0.0
680119,2032.0,437.0,161.9,0.0
680119,2036.0,437.0,161.9,0.0
680119,2029.0,437.0,161.9,0.0
680119,2035.0,437.0,161.9,0.0
680133,2048.0,438.0,161.9,0.0
680133,2052.0,438.0,161.9,0.0
680134,2054.0,438.0,161.9,0.0
680146,2055.0,438.0,161.9,0.0
680147,2057.0,438.0,161.9,0.0
680147,2060.0,438.0,161.9,0.0
680147,2066.0,438.0,161.9,0.0
680164,2043.0,437.0,161.9,0.0
680164,2045.0,437.0,161.9,0.0
680164,2046.0,437.0,161.9,0.0
680165,2051.0,437.0,161.9,0.0
680177,2026.0,437.0,161.9,0.0
680178,2032.0,437.0,161.9,0.0
680178,2040.0,437.0,161.9,0.0
680195,2052.0,437.0,161.9,0.0
680195,2041.0,437.0,161.9,0.0
680195,2050.0,437.0,161.9,0.0
680196,2042.0,437.0,161.9,0.0
680208,2062.0,437.0,161.9,0.0
680209,2059.0,437.0,161.9,0.0
680209,2060.0,437.0,161.9,0.0
680222,2026.0,437.0,161.9,0.0
680223,2035.0,437.0,161.9,0.0
680223,2036.0,437.0,161.9,0.0
680224,2042.0,437.0,161.9,0.0
680242,2022.0,437.0,161.9,0.0
680243,2036.0,437.0,161.9,0.0
680243,2037.0,437.0,161.9,0.0
680243,2031.0,437.0,161.9,0.0
680256,2039.0,437.0,161.9,0.0
680256,2035.0,437.0,161.9,0.0
680256,2038.0,437.0,161.9,0.0
680269,2065.0,437.0,161.9,0.0
680269,2061.0,437.0,161.9,0.0
680269,2064.0,437.0,161.9,0.0
680270,2064.0,437.0,161.9,0.0
680286,2066.0,437.0,161.9,0.0
680287,2061.0,437.0,161.9,0.0
680287,2059.0,437.0,161.9,0.0
680287,2057.0,437.0,161.9,0.0
680301,2028.0,437.0,161.9,0.0
680301,2028.0,437.0,161.9,0.0
680301,2023.0,437.0,161.9,0.0
680317,2043.0,437.0,161.9,0.0
680318,2043.0,437.0,161.9,0.0
680318,2040.0,437.0,161.9,0.0
680318,2039.0,437.0,161.9,0.0
680331,2061.0,437.0,161.9,0.0
680332,2056.0,437.0,161.9,0.0
680332,2057.0,437.0,161.9,0.0
680345,2049.0,437.0,161.9,0.0
680345,2056.0,437.0,161.9,0.0
680345,2050.0,437.0,161.9,0.0
680346,2054.0,437.0,161.9,0.0
680363,2042.0,436.0,161.9,0.0
680364,2043.0,436.0,161.9,0.0
680364,2040.0,436.0,161.9,0.0
680364,2034.0,436.0,161.9,0.0
680377,2033.0,436.0,161.9,0.0
680377,2026.0,436.0,161.9,0.0
680378,2034.0,436.0,161.9,0.0
680391,2069.0,436.0,176.6,0.0
680392,2067.0,436.0,176.6,0.0
680392,2067.0,436.0,176.6,0.0
680392,2054.0,436.0,176.6,0.0
680408,2069.0,436.0,176.6,0.0
680408,2069.0,436.0,176.6,0.0
680408,2071.0,436.0,176.6,0.0
680409,2064.0,436.0,176.6,0.0
680422,2029.0,436.0,176.6,0.0
680423,2034.0,436.0,176.6,0.0
680423,2031.0,436.0,176.6,0.0
680439,2016.0,436.0,176.6,0.0
680439,2029.0,436.0,176.6,0.0
680440,2038.0,436.0,176.6,0.0
680440,2039.0,436.0,176.6,0.0
680453,2053.0,436.0,176.6,0.0
680454,2054.0,436.0,176.6,0.0
680454,2051.0,436.0,176.6,0.0
680466,2058.0,436.0,176.6,0.0
680467,2072.0,436.0,176.6,0.0
680467,2069.0,436.0,176.6,0.0
680467,2057.0,436.0,176.6,0.0
680485,2037.0,436.0,176.6,0.0
680485,2055.0,436.0,176.6,0.0
680486,2071.0,436.0,176.6,0.0
680486,2058.0,436.0,176.6,0.0
680498,2033.0,436.0,176.6,0.0
680499,2011.0,436.0,176.6,0.0
680499,2034.0,436.0,176.6,0.0
680513,2058.0,435.0,176.6,0.0
680513,2054.0,435.0,176.6,0.0
680513,2060.0,435.0,176.6,0.0
680513,2059.0,435.0,176.6,0.0
680530,2058.0,435.0,176.6,0.0
680531,2051.0,435.0,176.6,0.0
680532,2058.0,435.0,176.6,0.0
680533,2024.0,435.0,176.6,0.0
680545,2045.0,435.0,176.6,0.0
680546,2062.0,435.0,176.6,0.0
680546,2042.0,435.0,176.6,0.0
680563,2038.0,435.0,176.6,0.0
680563,2036.0,435.0,176.6,0.0
680563,2040.0,435.0,176.6,0.0
680563,2038.0,435.0,176.6,0.0
